1585,1586,1592,1594,1592,1592,1592,1590,1594,1594,1592,1595,1595,1599,1592,1586,1592,1592,1592,1595,1595,1594,1596,1592,1591,1590,1592,1595,1600,1598,1596,1594,1596,1597,1592,1591,1596,1597,1599,1598,1622,1613,1584,1475,1384,1587,1601,1598,1596,1599,1592,1596,1598,1600,1600,1600,1625,1644,1591,1295,1578,1594,1599,1603,1598,1597,1594,1594,1599,1603,1600,1601,1601,1600,1595,1579,1583,1622,1603,1601,1603,1600,1600,1601,1600,1598,1598,1603,1608,1602,1596,1601,1600,1600,1603,1602,1604,1599,1600,1604,1611,1624,1638,1658,1668,1675,1677,1690,1704,1710,1729,1748,1756,1758,1770,1770,1772,1768,1776,1781,1782,1780,1777,1774,1772,1768,1760,1754,1750,1742,1724,1704,1696,1692,1682,1672,1666,1654,1646,1626,1608,1600,1590,1592,1594,1594,1596,1598,1595,1592,1587,1586,1592,1600,1604,1594,1589,1595,1598,1588,1582,1581,1589,1596,1600,1590,1583,1591,1594,1596,1592,1589,1602,1603,1600,1598,1594,1595,1601,1594,1597,1586,1563,1544,1522,1528,1592,1670,1756,1839,1918,2003,2097,2176,2257,2344,2428,2511,2604,2696,2766,2837,2933,3010,3008,2932,2841,2747,2652,2557,2463,2374,2274,2177,2080,1982,1888,1794,1689,1593,1506,1434,1408,1420,1444,1475,1503,1527,1556,1573,1576,1576,1578,1581,1574,1574,1578,1585,1594,1588,1580,1580,1576,1578,1584,1584,1588,1584,1581,1582,1575,1580,1588,1592,1589,1587,1580,1583,1587,1587,1588,1583,1584,1595,1584,1593,1594,1597,1613,1635,1649,1653,1676,1674,1686,1695,1712,1728,1735,1744,1761,1768,1781,1806,1812,1826,1858,1878,1892,1899,1915,1926,1930,1946,1958,1957,1972,1971,1972,1970,1974,1982,1990,1998,2001,1997,1992,2000,2004,2001,2003,2003,1998,2003,1995,1983,1975,1983,1979,1981,1976,1973,1969,1960,1954,1948,1936,1924,1912,1900,1884,1859,1846,1832,1814,1802,1790,1774,1768,1752,1730,1720,1709,1701,1689,1678,1667,1658,1639,1622,1604,1591,1577,1573,1580,1589,1585,1586,1585,1581,1584,1587,1586,1589,1587,1580,1584,1587,1587,1590,1587,1589,1591,1586,1586,1586,1583,1587,1586,1588,1591,1588,1587,1588,1584,1585,1586,1590,1591,1590,1585,1586,1584,1585,1592,1589,1586,1588,1586,1586,1585,1583,1590,1591,1590,1589,1588,1587,1592,1586,1588,1590,1591,1593,1590,1584,1588,1587,1588,1591,1590,1592,1588,1588,1590,1587,1588,1587,1590,1590,1592,1590,1588,1588,1586,1588,1589,1592,1593,1593,1586,1588,1583,1590,1590,1592,1592,1590,1591,1590,1588,1586,1592,1592,1590,1592,1590,1590,1590,1588,1590,1594,1596,1597,1596,1584,1587,1591,1594,1599,1594,1590,1592,1591,1594,1592,1591,1595,1595,1595,1596,1590,1594,1597,1592,1596,1597,1596,1599,1598,1591,1595,1596,1593,1596,1597,1596,1599,1594,1594,1592,1591,1598,1598,1600,1600,1594,1594,1596,1594,1594,1598,1601,1602,1599,1595,1595,1597,1596,1600,1600,1600,1605,1599,1596,1597,1595,1598,1604,1602,1607,1618,1626,1632,1651,1661,1674,1684,1695,1703,1710,1738,1751,1751,1755,1764,1774,1773,1772,1775,1778,1776,1777,1777,1772,1768,1768,1755,1749,1744,1737,1714,1701,1700,1690,1677,1669,1651,1640,1628,1614,1604,1598,1591,1591,1587,1588,1592,1594,1594,1595,1586,1586,1589,1595,1594,1592,1590,1598,1594,1582,1576,1581,1589,1598,1594,1589,1591,1586,1586,1584,1585,1597,1602,1602,1600,1593,1592,1596,1591,1586,1592,1577,1559,1540,1524,1543,1623,1703,1788,1875,1956,2052,2136,2208,2285,2364,2452,2550,2643,2726,2790,2866,2959,3015,2999,2904,2817,2726,2626,2529,2431,2340,2241,2146,2052,1957,1865,1772,1664,1562,1477,1422,1414,1426,1455,1492,1512,1534,1561,1574,1580,1583,1592,1588,1580,1579,1584,1589,1592,1591,1591,1592,1585,1586,1586,1587,1594,1591,1592,1590,1589,1589,1592,1592,1594,1592,1590,1594,1598,1600,1592,1591,1599,1594,1599,1604,1612,1614,1634,1648,1658,1675,1687,1690,1709,1718,1733,1740,1748,1759,1774,1787,1806,1819,1828,1850,1873,1887,1900,1917,1931,1943,1950,1958,1963,1971,1980,1983,1983,1992,1992,1992,2001,2004,2006,2003,2008,2018,2022,2012,2012,2010,2007,2008,2004,1996,1994,1998,1995,1991,1984,1979,1979,1973,1970,1965,1947,1930,1920,1907,1888,1878,1861,1843,1823,1808,1794,1783,1776,1756,1747,1739,1723,1711,1698,1686,1680,1672,1649,1640,1626,1605,1586,1592,1601,1606,1604,1609,1608,1604,1605,1611,1609,1610,1610,1610,1612,1612,1611,1609,1606,1611,1613,1614,1614,1611,1610,1614,1612,1611,1612,1616,1618,1616,1612,1609,1615,1613,1617,1618,1617,1617,1616,1614,1616,1612,1615,1620,1625,1618,1616,1614,1618,1615,1616,1617,1621,1624,1622,1616,1618,1616,1619,1621,1619,1621,1624,1618,1620,1616,1616,1622,1624,1624,1626,1623,1622,1622,1620,1620,1623,1628,1628,1621,1618,1622,1625,1624,1627,1629,1626,1626,1625,1626,1626,1621,1629,1631,1626,1629,1624,1624,1624,1624,1625,1626,1630,1632,1629,1625,1626,1626,1624,1632,1627,1628,1632,1630,1624,1630,1623,1630,1630,1632,1632,1629,1631,1630,1629,1630,1632,1635,1637,1634,1627,1627,1629,1629,1634,1634,1632,1636,1634,1631,1630,1631,1634,1633,1635,1638,1630,1632,1633,1630,1631,1634,1635,1638,1640,1631,1630,1631,1632,1636,1638,1636,1639,1634,1634,1633,1631,1638,1638,1637,1637,1638,1636,1633,1635,1642,1652,1664,1676,1689,1698,1705,1714,1725,1738,1744,1762,1786,1794,1788,1800,1804,1811,1812,1814,1818,1817,1814,1811,1809,1807,1807,1803,1792,1787,1770,1762,1739,1728,1728,1721,1712,1707,1684,1672,1659,1643,1640,1634,1625,1629,1628,1628,1630,1624,1627,1625,1626,1630,1633,1631,1624,1623,1629,1633,1627,1621,1624,1626,1628,1633,1623,1623,1628,1632,1630,1625,1628,1635,1638,1631,1640,1636,1636,1638,1624,1630,1619,1600,1582,1566,1566,1632,1702,1786,1870,1956,2039,2135,2212,2286,2368,2460,2542,2636,2720,2802,2878,2963,3041,3048,2970,2881,2801,2706,2600,2508,2420,2328,2217,2122,2024,1938,1852,1747,1648,1555,1477,1450,1452,1476,1513,1542,1563,1588,1603,1612,1614,1622,1618,1619,1617,1622,1622,1625,1624,1617,1626,1628,1620,1624,1624,1624,1627,1618,1617,1619,1625,1629,1625,1626,1628,1624,1621,1624,1631,1632,1628,1622,1631,1622,1630,1637,1644,1655,1678,1692,1696,1712,1712,1722,1737,1756,1774,1774,1781,1795,1811,1821,1842,1860,1874,1902,1918,1926,1938,1952,1969,1976,1992,2002,2003,2011,2011,2014,2014,2019,2029,2035,2040,2040,2037,2041,2045,2053,2050,2050,2050,2039,2036,2037,2030,2028,2033,2030,2031,2022,2014,2012,2003,2000,1998,1991,1974,1959,1946,1928,1910,1895,1881,1867,1848,1837,1823,1808,1795,1779,1774,1766,1755,1737,1722,1713,1706,1687,1665,1659,1648,1627,1621,1626,1633,1636,1636,1638,1637,1638,1642,1638,1638,1635,1633,1636,1643,1641,1639,1638,1638,1639,1637,1637,1639,1642,1642,1640,1636,1634,1638,1635,1636,1639,1639,1642,1639,1634,1636,1633,1640,1640,1640,1640,1638,1640,1639,1635,1638,1640,1642,1643,1642,1638,1634,1637,1638,1641,1642,1638,1638,1640,1639,1637,1633,1642,1643,1643,1644,1641,1641,1641,1639,1642,1642,1644,1644,1644,1641,1639,1640,1640,1640,1641,1642,1648,1644,1642,1639,1638,1646,1648,1644,1645,1642,1643,1642,1640,1645,1644,1646,1646,1644,1644,1641,1643,1644,1646,1646,1644,1648,1647,1644,1646,1642,1648,1651,1648,1649,1644,1646,1647,1647,1644,1649,1650,1653,1649,1647,1641,1645,1644,1645,1646,1645,1650,1646,1646,1646,1641,1649,1649,1647,1650,1644,1644,1647,1646,1642,1646,1651,1652,1650,1644,1644,1642,1645,1647,1648,1648,1648,1646,1644,1644,1644,1647,1649,1644,1649,1645,1643,1648,1645,1643,1642,1650,1652,1649,1650,1650,1664,1675,1687,1703,1712,1723,1729,1734,1748,1756,1781,1801,1800,1804,1815,1818,1820,1817,1818,1830,1827,1829,1824,1816,1818,1815,1803,1795,1787,1780,1767,1748,1737,1732,1722,1715,1702,1690,1676,1661,1648,1642,1632,1632,1633,1638,1640,1641,1635,1634,1635,1631,1636,1641,1639,1640,1633,1635,1634,1626,1624,1629,1635,1644,1640,1629,1630,1633,1633,1638,1640,1642,1645,1644,1643,1641,1636,1638,1643,1638,1644,1624,1600,1581,1562,1584,1661,1741,1824,1907,1986,2078,2166,2239,2318,2407,2498,2586,2673,2758,2825,2906,2998,3064,3049,2959,2861,2769,2673,2575,2484,2393,2292,2192,2097,2003,1910,1817,1705,1610,1527,1466,1455,1464,1495,1533,1556,1580,1603,1616,1631,1627,1626,1620,1617,1625,1632,1634,1634,1626,1627,1628,1623,1626,1626,1633,1636,1632,1628,1621,1628,1633,1634,1639,1640,1640,1636,1634,1637,1639,1637,1634,1643,1638,1639,1645,1651,1656,1676,1692,1699,1720,1726,1731,1742,1754,1774,1783,1790,1799,1820,1830,1842,1858,1871,1893,1919,1932,1946,1951,1969,1978,1983,1998,2010,2019,2027,2024,2023,2024,2033,2039,2043,2050,2052,2055,2049,2056,2056,2053,2056,2058,2051,2050,2045,2038,2039,2037,2033,2036,2034,2030,2023,2013,2005,2007,1988,1970,1962,1953,1933,1916,1900,1877,1858,1854,1840,1827,1817,1795,1783,1775,1766,1746,1737,1727,1724,1707,1685,1669,1661,1643,1628,1633,1643,1649,1648,1645,1642,1640,1649,1650,1652,1651,1647,1648,1645,1644,1645,1646,1652,1654,1652,1647,1647,1648,1651,1651,1652,1650,1656,1653,1650,1650,1649,1652,1658,1655,1657,1648,1651,1652,1651,1655,1653,1653,1656,1654,1653,1653,1650,1651,1654,1657,1652,1653,1657,1654,1655,1649,1656,1656,1657,1658,1654,1654,1655,1655,1656,1655,1661,1662,1660,1654,1652,1657,1658,1661,1659,1657,1664,1661,1664,1660,1654,1659,1663,1664,1661,1658,1661,1658,1656,1654,1657,1664,1664,1665,1660,1660,1660,1660,1661,1662,1665,1664,1666,1664,1659,1659,1662,1666,1665,1664,1666,1666,1661,1663,1666,1665,1670,1668,1667,1664,1665,1668,1662,1670,1665,1666,1674,1670,1669,1665,1662,1668,1674,1673,1674,1672,1672,1676,1668,1669,1670,1671,1675,1675,1672,1671,1674,1674,1678,1679,1679,1680,1678,1674,1674,1670,1679,1682,1684,1680,1679,1677,1678,1678,1678,1681,1683,1687,1683,1682,1681,1680,1678,1681,1683,1685,1698,1709,1712,1726,1738,1754,1761,1773,1781,1788,1800,1832,1833,1834,1840,1855,1860,1857,1856,1860,1862,1857,1862,1857,1855,1854,1849,1836,1827,1820,1812,1793,1782,1776,1764,1758,1748,1730,1721,1707,1700,1688,1678,1670,1671,1672,1672,1679,1675,1675,1674,1672,1670,1676,1676,1674,1673,1673,1676,1672,1662,1663,1668,1669,1678,1678,1674,1676,1676,1672,1671,1673,1681,1690,1686,1691,1681,1677,1681,1677,1682,1674,1652,1632,1611,1613,1669,1746,1824,1916,2008,2092,2178,2254,2330,2413,2502,2590,2686,2770,2849,2917,3007,3084,3096,3044,2945,2850,2753,2656,2561,2477,2374,2273,2185,2084,1993,1904,1798,1697,1616,1531,1499,1504,1530,1564,1590,1609,1632,1648,1662,1670,1670,1673,1670,1665,1670,1673,1674,1674,1674,1676,1675,1668,1668,1670,1672,1675,1672,1671,1672,1672,1675,1676,1675,1680,1673,1673,1674,1679,1684,1674,1671,1682,1675,1685,1691,1696,1702,1722,1736,1747,1767,1768,1776,1797,1807,1820,1821,1828,1852,1864,1876,1896,1904,1920,1948,1963,1973,1988,2012,2022,2028,2036,2042,2050,2060,2065,2067,2068,2077,2079,2080,2084,2089,2088,2092,2098,2101,2100,2102,2098,2090,2088,2090,2088,2083,2084,2080,2075,2077,2066,2064,2057,2049,2054,2039,2018,2005,1994,1981,1964,1948,1933,1912,1894,1886,1870,1858,1847,1835,1824,1813,1797,1785,1776,1764,1755,1738,1721,1716,1697,1679,1665,1668,1682,1688,1688,1687,1686,1688,1688,1684,1684,1688,1690,1691,1691,1682,1684,1685,1688,1691,1690,1690,1693,1688,1686,1685,1683,1691,1694,1692,1690,1686,1686,1690,1686,1686,1688,1695,1692,1692,1686,1684,1690,1688,1689,1690,1694,1695,1694,1688,1690,1689,1694,1695,1695,1696,1693,1692,1690,1690,1691,1695,1695,1698,1700,1694,1693,1693,1694,1696,1697,1690,1698,1693,1690,1690,1691,1695,1699,1697,1698,1694,1696,1695,1692,1694,1697,1698,1701,1700,1693,1692,1698,1696,1698,1699,1695,1700,1698,1698,1691,1693,1701,1702,1701,1700,1698,1697,1698,1696,1694,1699,1702,1701,1702,1699,1698,1699,1698,1702,1701,1702,1705,1702,1700,1700,1693,1700,1702,1706,1703,1702,1700,1703,1698,1699,1700,1707,1706,1706,1701,1698,1701,1700,1704,1704,1700,1708,1704,1698,1697,1699,1704,1705,1705,1705,1704,1702,1706,1702,1703,1703,1706,1707,1707,1700,1701,1702,1703,1707,1706,1704,1707,1703,1702,1700,1701,1709,1725,1729,1744,1759,1766,1776,1782,1790,1805,1821,1840,1857,1854,1857,1870,1875,1874,1878,1877,1884,1882,1876,1875,1871,1873,1873,1861,1853,1848,1842,1821,1801,1794,1793,1786,1776,1758,1742,1732,1719,1704,1699,1693,1692,1697,1696,1694,1695,1690,1694,1692,1689,1698,1699,1698,1692,1688,1690,1694,1692,1687,1688,1691,1693,1696,1688,1686,1691,1695,1698,1696,1694,1700,1699,1702,1703,1697,1698,1698,1692,1696,1680,1658,1638,1628,1648,1713,1797,1877,1963,2048,2128,2217,2301,2383,2467,2546,2627,2724,2812,2888,2958,3052,3118,3100,3008,2923,2827,2730,2634,2542,2452,2351,2248,2154,2056,1969,1878,1767,1672,1584,1516,1502,1518,1551,1588,1610,1633,1654,1671,1674,1676,1678,1679,1677,1680,1682,1686,1686,1684,1680,1683,1678,1678,1680,1685,1683,1675,1677,1674,1678,1684,1686,1685,1689,1683,1681,1680,1688,1692,1690,1681,1685,1681,1687,1693,1702,1704,1720,1743,1749,1762,1772,1776,1794,1807,1823,1830,1839,1848,1862,1871,1885,1904,1922,1942,1964,1976,1980,2000,2015,2026,2032,2046,2060,2064,2072,2068,2068,2076,2082,2088,2089,2093,2096,2094,2096,2098,2102,2108,2108,2104,2096,2093,2092,2083,2082,2085,2082,2086,2074,2070,2062,2054,2055,2056,2038,2018,2006,1995,1972,1959,1936,1925,1910,1896,1888,1866,1852,1842,1832,1819,1809,1794,1787,1774,1761,1746,1728,1717,1706,1692,1674,1674,1682,1686,1690,1690,1687,1692,1693,1692,1690,1691,1693,1688,1692,1693,1687,1692,1695,1690,1687,1687,1688,1694,1696,1691,1691,1691,1692,1692,1687,1692,1694,1695,1697,1691,1694,1695,1694,1697,1694,1695,1699,1696,1695,1689,1691,1699,1698,1697,1698,1698,1698,1698,1695,1693,1696,1699,1702,1700,1694,1694,1698,1697,1703,1701,1700,1703,1699,1695,1698,1697,1701,1699,1700,1702,1700,1699,1699,1698,1696,1702,1706,1706,1706,1702,1700,1701,1702,1707,1703,1702,1706,1706,1704,1699,1700,1702,1705,1705,1702,1701,1703,1700,1703,1700,1702,1708,1705,1707,1702,1700,1707,1705,1705,1702,1703,1710,1708,1702,1701,1700,1706,1708,1708,1708,1704,1706,1706,1702,1705,1707,1706,1710,1710,1707,1706,1710,1707,1710,1707,1704,1710,1711,1708,1706,1704,1708,1716,1714,1712,1710,1710,1708,1707,1707,1711,1713,1714,1712,1710,1712,1712,1710,1714,1711,1712,1714,1714,1714,1712,1706,1714,1712,1715,1717,1712,1716,1724,1737,1745,1760,1778,1786,1792,1800,1809,1819,1828,1855,1868,1866,1878,1882,1888,1884,1883,1890,1894,1895,1892,1887,1885,1882,1878,1865,1859,1856,1848,1828,1809,1806,1800,1789,1780,1764,1757,1744,1730,1715,1707,1699,1706,1708,1707,1710,1705,1708,1704,1701,1702,1706,1717,1708,1706,1703,1706,1706,1696,1694,1701,1702,1720,1707,1698,1700,1702,1700,1704,1707,1714,1715,1714,1717,1710,1703,1711,1708,1714,1705,1680,1656,1642,1640,1692,1770,1858,1947,2027,2110,2192,2273,2360,2446,2529,2613,2704,2800,2875,2945,3024,3106,3134,3073,2984,2895,2789,2703,2603,2508,2415,2317,2228,2133,2029,1936,1835,1736,1661,1573,1534,1536,1560,1592,1622,1640,1665,1692,1704,1703,1702,1703,1702,1699,1705,1707,1713,1721,1708,1706,1706,1704,1710,1712,1718,1717,1710,1712,1707,1709,1711,1713,1722,1725,1717,1715,1713,1718,1723,1711,1712,1724,1714,1723,1725,1727,1733,1760,1775,1785,1804,1807,1817,1828,1846,1856,1863,1878,1896,1903,1913,1930,1948,1958,1986,2006,2014,2033,2046,2056,2064,2072,2088,2099,2104,2106,2106,2108,2112,2116,2118,2129,2137,2132,2134,2134,2138,2140,2140,2137,2134,2132,2135,2129,2116,2117,2119,2122,2118,2112,2104,2098,2094,2091,2082,2060,2046,2040,2027,2007,1989,1970,1960,1939,1928,1914,1902,1896,1879,1867,1854,1838,1829,1820,1809,1800,1782,1761,1754,1737,1716,1705,1718,1728,1733,1729,1726,1729,1727,1729,1728,1730,1730,1729,1730,1727,1723,1730,1732,1733,1732,1726,1728,1727,1727,1728,1732,1733,1734,1734,1727,1730,1731,1730,1732,1732,1732,1739,1734,1729,1726,1725,1730,1731,1728,1733,1732,1730,1732,1733,1731,1732,1736,1736,1737,1731,1728,1735,1736,1736,1735,1735,1738,1734,1735,1732,1729,1739,1736,1736,1735,1737,1738,1736,1734,1734,1736,1737,1738,1741,1736,1732,1736,1731,1737,1741,1737,1741,1742,1741,1732,1736,1735,1737,1738,1739,1738,1736,1738,1736,1736,1739,1741,1743,1745,1737,1733,1740,1741,1743,1742,1738,1745,1742,1742,1737,1736,1740,1743,1742,1742,1744,1740,1741,1741,1740,1740,1745,1745,1746,1741,1740,1739,1740,1743,1744,1745,1746,1748,1744,1744,1738,1741,1746,1748,1750,1745,1744,1741,1742,1745,1746,1751,1750,1749,1746,1743,1744,1748,1749,1750,1748,1753,1748,1746,1745,1740,1746,1748,1753,1752,1746,1744,1745,1742,1739,1748,1753,1768,1779,1782,1800,1814,1819,1825,1836,1848,1860,1880,1896,1894,1898,1912,1924,1919,1922,1923,1926,1921,1924,1922,1919,1919,1917,1910,1895,1888,1883,1862,1849,1839,1836,1834,1820,1803,1790,1771,1764,1755,1747,1740,1740,1737,1738,1740,1736,1738,1738,1738,1738,1736,1740,1743,1735,1735,1736,1736,1737,1730,1729,1734,1736,1742,1740,1736,1738,1738,1736,1738,1735,1739,1750,1750,1748,1744,1741,1739,1738,1737,1726,1710,1685,1674,1678,1745,1820,1906,1994,2084,2170,2259,2332,2410,2496,2582,2664,2764,2856,2928,3003,3094,3158,3156,3057,2970,2883,2783,2696,2594,2500,2402,2299,2207,2112,2022,1930,1824,1721,1635,1566,1556,1564,1600,1636,1659,1677,1695,1720,1721,1724,1729,1724,1727,1727,1724,1724,1730,1732,1734,1730,1725,1726,1724,1731,1734,1730,1728,1731,1728,1734,1728,1733,1736,1726,1731,1732,1732,1745,1737,1727,1731,1729,1734,1740,1747,1754,1767,1785,1798,1811,1817,1822,1840,1855,1873,1881,1882,1897,1912,1924,1939,1954,1969,1984,2012,2022,2030,2050,2068,2074,2083,2095,2104,2109,2116,2112,2119,2126,2136,2139,2134,2142,2146,2141,2143,2153,2153,2158,2153,2149,2141,2141,2144,2134,2132,2136,2134,2129,2122,2118,2111,2107,2106,2104,2089,2065,2054,2040,2022,2006,1992,1975,1962,1948,1929,1918,1902,1892,1883,1872,1859,1846,1833,1824,1810,1795,1777,1770,1760,1744,1716,1719,1728,1733,1735,1737,1736,1738,1736,1734,1730,1729,1732,1736,1738,1734,1732,1732,1733,1732,1732,1733,1736,1733,1740,1734,1731,1736,1734,1740,1738,1737,1743,1738,1736,1732,1734,1738,1738,1737,1738,1734,1738,1736,1736,1735,1735,1740,1740,1742,1735,1730,1739,1734,1739,1740,1737,1739,1738,1738,1737,1732,1738,1739,1740,1742,1740,1738,1738,1740,1735,1738,1740,1741,1742,1735,1736,1742,1739,1736,1738,1738,1744,1740,1738,1738,1736,1738,1741,1745,1742,1738,1740,1736,1739,1739,1740,1746,1745,1743,1739,1739,1745,1740,1743,1746,1745,1745,1744,1743,1740,1736,1739,1743,1745,1747,1743,1741,1745,1742,1738,1740,1745,1744,1748,1741,1742,1745,1743,1743,1741,1744,1748,1747,1742,1741,1739,1745,1745,1746,1743,1745,1744,1746,1744,1740,1743,1749,1750,1752,1748,1744,1748,1744,1744,1747,1746,1749,1747,1745,1743,1743,1746,1748,1748,1748,1747,1748,1745,1742,1742,1748,1749,1750,1752,1749,1745,1752,1760,1770,1782,1795,1814,1824,1826,1830,1841,1852,1868,1888,1902,1902,1908,1915,1920,1914,1921,1928,1930,1932,1926,1922,1921,1920,1918,1904,1901,1898,1886,1861,1843,1840,1837,1830,1817,1801,1790,1774,1759,1746,1741,1737,1743,1742,1746,1742,1737,1742,1738,1739,1740,1742,1753,1742,1738,1737,1736,1742,1732,1732,1735,1742,1748,1740,1736,1734,1740,1742,1741,1743,1746,1746,1748,1745,1744,1743,1747,1746,1748,1736,1713,1692,1677,1676,1721,1792,1883,1967,2050,2134,2216,2298,2387,2466,2552,2630,2730,2822,2891,2968,3045,3133,3170,3120,3025,2930,2838,2745,2655,2562,2464,2360,2267,2173,2072,1978,1882,1778,1698,1612,1561,1560,1583,1614,1645,1668,1689,1721,1730,1730,1729,1732,1732,1732,1735,1736,1740,1738,1735,1732,1730,1732,1738,1736,1745,1740,1733,1740,1731,1732,1738,1743,1746,1748,1735,1739,1736,1745,1753,1740,1740,1748,1734,1746,1753,1756,1762,1789,1805,1820,1826,1826,1840,1852,1868,1887,1892,1903,1914,1924,1936,1956,1972,1984,2015,2033,2041,2050,2069,2082,2084,2098,2115,2118,2130,2130,2124,2132,2136,2144,2147,2153,2166,2159,2152,2154,2157,2164,2166,2167,2161,2156,2154,2150,2141,2137,2143,2146,2143,2139,2130,2122,2121,2114,2111,2091,2073,2070,2055,2031,2015,2000,1988,1972,1960,1945,1931,1919,1901,1893,1878,1872,1860,1849,1837,1827,1810,1796,1780,1770,1748,1739,1747,1758,1754,1753,1752,1758,1760,1762,1762,1758,1760,1758,1760,1758,1759,1766,1762,1766,1758,1758,1760,1759,1760,1760,1757,1765,1767,1762,1759,1757,1763,1762,1764,1763,1762,1763,1762,1760,1764,1761,1767,1767,1768,1765,1763,1765,1765,1766,1766,1765,1769,1766,1765,1763,1762,1765,1767,1770,1767,1768,1766,1768,1765,1766,1767,1773,1769,1774,1768,1763,1766,1768,1770,1769,1768,1773,1770,1770,1767,1763,1767,1771,1770,1771,1770,1773,1771,1767,1767,1768,1775,1771,1778,1772,1768,1772,1767,1774,1774,1774,1777,1775,1772,1771,1771,1774,1779,1778,1778,1778,1776,1774,1772,1774,1776,1777,1778,1783,1776,1774,1775,1774,1775,1779,1777,1779,1777,1774,1775,1774,1774,1778,1783,1778,1778,1777,1780,1779,1776,1776,1782,1783,1786,1776,1776,1777,1779,1780,1779,1780,1787,1779,1784,1778,1776,1780,1778,1783,1782,1783,1783,1784,1781,1775,1781,1786,1784,1788,1781,1777,1783,1781,1783,1784,1780,1788,1790,1799,1805,1813,1834,1848,1855,1860,1871,1883,1895,1911,1928,1934,1938,1952,1962,1954,1955,1960,1960,1962,1961,1955,1962,1958,1947,1941,1930,1927,1924,1907,1887,1880,1870,1860,1852,1838,1822,1812,1800,1795,1777,1770,1771,1770,1772,1775,1773,1775,1774,1772,1767,1764,1772,1777,1772,1768,1773,1774,1768,1764,1756,1768,1778,1783,1776,1766,1767,1774,1768,1773,1774,1778,1784,1784,1781,1774,1774,1780,1772,1781,1768,1746,1725,1704,1711,1770,1850,1939,2028,2118,2198,2281,2363,2437,2527,2610,2695,2798,2888,2956,3024,3116,3192,3191,3104,3013,2928,2832,2726,2632,2543,2450,2346,2249,2160,2068,1968,1859,1758,1683,1607,1592,1608,1634,1661,1686,1707,1734,1752,1762,1762,1766,1764,1758,1757,1758,1765,1770,1770,1768,1767,1762,1762,1761,1768,1772,1767,1773,1767,1762,1762,1764,1769,1774,1774,1768,1768,1769,1774,1773,1764,1768,1778,1774,1783,1780,1785,1800,1821,1833,1847,1862,1862,1875,1885,1897,1909,1919,1932,1950,1960,1972,1991,2003,2017,2042,2063,2074,2086,2109,2108,2115,2136,2140,2149,2155,2157,2162,2161,2165,2170,2170,2180,2186,2186,2184,2189,2190,2192,2192,2186,2180,2184,2182,2178,2166,2168,2171,2167,2163,2159,2156,2149,2141,2139,2121,2102,2095,2086,2068,2052,2033,2018,2000,1983,1968,1959,1950,1935,1925,1906,1895,1885,1872,1862,1853,1840,1826,1811,1796,1778,1756,1759,1766,1778,1776,1776,1776,1776,1776,1771,1772,1781,1778,1782,1776,1774,1775,1772,1774,1774,1775,1780,1776,1772,1772,1768,1774,1776,1778,1779,1780,1777,1773,1775,1772,1773,1778,1776,1779,1776,1774,1775,1776,1777,1774,1774,1779,1777,1776,1771,1771,1774,1777,1781,1781,1779,1775,1776,1778,1772,1774,1783,1780,1782,1779,1772,1777,1779,1780,1778,1780,1782,1778,1782,1775,1774,1779,1781,1781,1779,1777,1778,1778,1780,1774,1780,1779,1781,1784,1781,1777,1780,1780,1781,1781,1780,1787,1785,1781,1778,1776,1785,1783,1784,1782,1786,1779,1782,1783,1775,1783,1787,1786,1788,1784,1781,1780,1781,1781,1782,1784,1789,1786,1781,1779,1777,1782,1784,1785,1782,1785,1785,1784,1784,1778,1781,1786,1785,1786,1780,1781,1782,1777,1780,1778,1781,1785,1782,1782,1776,1777,1784,1781,1785,1786,1783,1781,1780,1782,1777,1780,1785,1785,1786,1784,1780,1782,1778,1782,1781,1784,1788,1785,1782,1779,1777,1777,1787,1795,1803,1810,1821,1834,1850,1856,1866,1878,1889,1898,1916,1931,1936,1938,1951,1954,1952,1960,1960,1961,1953,1954,1956,1955,1952,1948,1938,1928,1921,1916,1890,1877,1877,1867,1864,1851,1832,1822,1808,1792,1781,1776,1770,1770,1770,1765,1769,1770,1771,1771,1768,1769,1772,1771,1769,1760,1762,1775,1772,1768,1761,1760,1770,1774,1770,1764,1768,1772,1772,1767,1766,1772,1779,1779,1780,1775,1775,1775,1773,1774,1766,1750,1734,1714,1712,1740,1805,1887,1971,2068,2148,2230,2323,2391,2476,2560,2639,2730,2826,2917,2982,3056,3143,3192,3155,3059,2977,2895,2783,2696,2598,2510,2402,2302,2216,2126,2024,1934,1824,1733,1641,1586,1586,1604,1641,1669,1691,1716,1740,1751,1750,1757,1761,1760,1758,1757,1756,1768,1765,1758,1762,1762,1766,1765,1758,1762,1762,1760,1763,1762,1761,1767,1770,1771,1768,1759,1758,1766,1774,1782,1765,1760,1772,1761,1772,1776,1782,1796,1814,1826,1832,1846,1854,1868,1880,1891,1907,1918,1922,1936,1943,1958,1986,1997,2012,2028,2050,2066,2074,2093,2103,2113,2128,2138,2141,2147,2148,2152,2158,2164,2167,2172,2172,2180,2182,2172,2178,2192,2191,2196,2189,2182,2182,2180,2181,2170,2167,2174,2172,2164,2157,2152,2149,2144,2144,2140,2120,2102,2091,2078,2052,2038,2024,2012,2000,1978,1958,1951,1938,1926,1916,1904,1899,1882,1868,1853,1843,1833,1815,1805,1788,1772,1758,1761,1771,1768,1771,1774,1776,1781,1776,1774,1774,1775,1775,1775,1778,1780,1778,1779,1775,1775,1778,1779,1782,1777,1779,1779,1779,1780,1772,1776,1782,1779,1783,1780,1776,1779,1776,1778,1779,1782,1784,1782,1781,1777,1778,1782,1782,1786,1782,1783,1783,1782,1780,1775,1782,1787,1784,1788,1782,1780,1783,1781,1782,1783,1784,1788,1787,1786,1783,1780,1782,1787,1786,1784,1792,1788,1787,1785,1783,1783,1791,1791,1794,1788,1783,1790,1785,1789,1790,1786,1790,1790,1789,1782,1786,1790,1790,1793,1789,1792,1792,1787,1794,1783,1790,1790,1794,1798,1792,1789,1788,1789,1793,1791,1792,1797,1794,1796,1792,1790,1795,1795,1795,1792,1796,1798,1797,1798,1795,1793,1802,1801,1803,1798,1794,1798,1800,1799,1802,1805,1808,1808,1805,1796,1802,1801,1800,1808,1802,1802,1801,1802,1803,1799,1800,1808,1806,1810,1804,1802,1802,1807,1807,1806,1804,1805,1808,1804,1803,1802,1804,1806,1811,1803,1810,1809,1810,1809,1816,1832,1841,1858,1874,1880,1881,1897,1902,1915,1932,1958,1963,1964,1971,1978,1978,1978,1984,1992,1986,1990,1982,1979,1981,1972,1966,1966,1957,1955,1936,1912,1900,1899,1890,1884,1874,1860,1848,1827,1815,1805,1800,1795,1803,1799,1804,1803,1800,1802,1792,1796,1802,1803,1813,1801,1792,1796,1801,1799,1790,1790,1800,1805,1811,1797,1794,1796,1804,1804,1799,1803,1807,1812,1808,1807,1805,1806,1811,1806,1808,1792,1770,1750,1735,1737,1795,1882,1967,2052,2130,2211,2310,2390,2466,2550,2637,2719,2819,2908,2975,3045,3147,3223,3227,3144,3050,2957,2863,2768,2673,2580,2486,2388,2292,2187,2100,2016,1906,1804,1718,1646,1625,1628,1661,1683,1714,1740,1764,1787,1790,1787,1793,1793,1787,1788,1795,1800,1805,1798,1793,1792,1793,1796,1798,1796,1805,1800,1794,1793,1787,1796,1803,1804,1809,1804,1796,1798,1797,1806,1806,1798,1802,1808,1796,1802,1811,1816,1828,1854,1862,1874,1890,1888,1902,1910,1930,1950,1953,1965,1976,1981,2001,2021,2034,2045,2074,2094,2103,2112,2131,2137,2149,2165,2173,2178,2186,2183,2185,2187,2193,2201,2206,2215,2215,2208,2208,2218,2220,2219,2221,2222,2216,2214,2214,2199,2199,2201,2203,2202,2193,2192,2186,2178,2176,2167,2153,2143,2130,2120,2099,2076,2065,2049,2035,2014,2005,1995,1983,1968,1949,1940,1928,1918,1909,1894,1886,1878,1856,1838,1825,1813,1798,1788,1802,1804,1802,1806,1804,1808,1806,1805,1807,1808,1801,1805,1803,1804,1806,1810,1808,1811,1811,1809,1808,1803,1806,1811,1810,1813,1808,1803,1808,1806,1808,1802,1810,1813,1814,1809,1804,1807,1807,1809,1810,1806,1812,1811,1812,1806,1805,1806,1812,1810,1813,1810,1809,1805,1805,1810,1810,1812,1813,1815,1810,1806,1808,1805,1811,1814,1812,1813,1814,1813,1811,1808,1811,1815,1812,1816,1814,1809,1811,1808,1813,1812,1812,1814,1815,1810,1809,1810,1808,1811,1817,1816,1817,1811,1814,1817,1808,1812,1815,1813,1818,1812,1811,1816,1812,1816,1815,1815,1819,1819,1817,1810,1811,1812,1813,1816,1815,1815,1818,1815,1817,1811,1814,1816,1818,1818,1814,1811,1816,1812,1815,1814,1818,1820,1820,1816,1813,1814,1811,1812,1818,1818,1819,1820,1813,1818,1814,1816,1818,1817,1822,1817,1816,1817,1815,1816,1816,1818,1818,1819,1816,1814,1811,1812,1816,1822,1818,1820,1818,1814,1818,1811,1814,1814,1816,1824,1824,1830,1844,1849,1872,1882,1891,1901,1910,1917,1926,1949,1960,1967,1974,1981,1992,1988,1986,1992,1993,1990,1996,1995,1995,1984,1980,1972,1965,1960,1947,1931,1917,1916,1903,1888,1881,1867,1858,1842,1828,1820,1810,1800,1803,1802,1802,1809,1809,1811,1803,1803,1800,1803,1809,1807,1802,1800,1811,1808,1795,1789,1794,1806,1813,1807,1801,1798,1798,1798,1798,1800,1809,1816,1821,1809,1807,1807,1803,1807,1805,1804,1788,1765,1750,1730,1762,1828,1910,1998,2078,2169,2254,2336,2409,2485,2572,2666,2754,2854,2933,2995,3074,3166,3229,3212,3115,3025,2937,2835,2734,2638,2549,2450,2355,2258,2165,2073,1980,1871,1765,1683,1625,1619,1632,1659,1694,1713,1740,1766,1779,1788,1788,1794,1789,1777,1784,1785,1794,1798,1788,1792,1792,1788,1791,1782,1792,1796,1792,1796,1789,1786,1789,1795,1795,1794,1791,1790,1794,1794,1795,1790,1786,1793,1792,1796,1803,1806,1815,1834,1844,1856,1875,1881,1892,1901,1914,1932,1937,1947,1958,1974,1986,2003,2016,2028,2047,2074,2090,2102,2114,2131,2137,2146,2158,2158,2169,2180,2179,2186,2182,2184,2190,2198,2204,2206,2201,2204,2212,2216,2209,2211,2208,2202,2206,2199,2192,2191,2191,2192,2181,2181,2181,2174,2174,2161,2158,2140,2121,2110,2098,2078,2066,2053,2034,2010,2000,1984,1975,1969,1950,1939,1925,1911,1902,1884,1874,1870,1856,1838,1826,1810,1793,1777,1777,1791,1672,1786,1797,1797,1794,1792,1792,1800,1801,1799,1800,1798,1799,1799,1796,1800,1802,1801,1802,1798,1796,1796,1798,1797,1800,1804,1801,1801,1801,1794,1799,1800,1801,1802,1799,1803,1803,1802,1803,1798,1798,1805,1805,1807,1802,1798,1798,1800,1804,1803,1801,1802,1806,1803,1801,1802,1804,1805,1806,1804,1803,1805,1806,1803,1795,1800,1807,1808,1807,1803,1802,1802,1803,1803,1804,1806,1806,1809,1808,1804,1804,1803,1808,1810,1806,1813,1808,1807,1806,1804,1806,1810,1810,1809,1809,1805,1804,1806,1807,1807,1810,1811,1813,1807,1805,1807,1806,1812,1814,1807,1810,1806,1808,1810,1805,1810,1813,1812,1819,1810,1808,1810,1812,1809,1812,1813,1813,1813,1810,1809,1807,1812,1816,1817,1813,1816,1812,1810,1812,1807,1813,1811,1817,1817,1814,1811,1811,1812,1814,1813,1812,1814,1817,1816,1813,1812,1812,1816,1818,1815,1819,1818,1816,1817,1811,1812,1818,1820,1820,1820,1815,1814,1820,1824,1830,1838,1850,1866,1882,1888,1896,1901,1915,1927,1940,1961,1973,1973,1981,1982,1988,1992,1991,1996,1998,1993,1996,1991,1987,1989,1985,1977,1967,1961,1944,1924,1910,1913,1908,1892,1883,1869,1856,1843,1827,1817,1813,1810,1812,1810,1810,1814,1806,1813,1807,1805,1805,1816,1820,1809,1805,1804,1811,1809,1801,1804,1806,1810,1818,1802,1798,1808,1812,1809,1809,1805,1816,1818,1812,1815,1814,1812,1820,1810,1816,1803,1781,1764,1746,1746,1803,1884,1965,2053,2132,2214,2311,2397,2474,2554,2634,2717,2822,2910,2986,3055,3148,3232,3238,3162,3073,2985,2888,2793,2698,2613,2510,2407,2318,2218,2126,2036,1936,1828,1744,1662,1632,1643,1666,1696,1727,1752,1778,1791,1796,1804,1806,1810,1805,1802,1809,1812,1813,1814,1807,1809,1814,1810,1813,1809,1814,1814,1810,1812,1806,1807,1814,1820,1820,1815,1809,1809,1812,1821,1821,1818,1814,1820,1811,1815,1822,1828,1842,1864,1874,1882,1902,1901,1916,1928,1948,1964,1970,1973,1986,1998,2013,2032,2050,2062,2088,2104,2116,2130,2146,2155,2166,2183,2192,2194,2202,2205,2207,2209,2212,2217,2222,2231,2235,2226,2225,2232,2241,2245,2242,2240,2234,2232,2232,2220,2214,2219,2222,2220,2214,2205,2204,2196,2191,2189,2180,2162,2150,2134,2115,2098,2083,2072,2057,2039,2026,2015,1998,1986,1967,1958,1952,1944,1930,1918,1903,1893,1880,1862,1847,1834,1820,1812,1818,1822,1826,1826,1827,1831,1828,1832,1830,1826,1824,1823,1824,1828,1830,1831,1827,1825,1825,1826,1826,1824,1830,1831,1835,1828,1825,1824,1823,1830,1829,1831,1832,1831,1829,1826,1820,1823,1828,1833,1834,1830,1829,1828,1828,1828,1827,1832,1832,1833,1828,1826,1826,1828,1828,1833,1828,1828,1830,1826,1831,1826,1826,1832,1832,1832,1829,1829,1829,1833,1827,1830,1837,1834,1837,1834,1827,1830,1831,1832,1834,1832,1837,1836,1835,1835,1827,1832,1834,1839,1840,1835,1835,1836,1839,1834,1838,1835,1838,1839,1834,1832,1834,1834,1837,1839,1837,1837,1840,1837,1835,1832,1837,1837,1839,1839,1833,1834,1836,1838,1838,1835,1840,1841,1842,1840,1837,1836,1840,1839,1842,1838,1841,1834,1838,1838,1835,1840,1841,1840,1843,1840,1838,1838,1841,1840,1837,1839,1842,1848,1844,1838,1840,1836,1840,1842,1842,1842,1844,1841,1840,1839,1839,1843,1844,1847,1845,1838,1840,1841,1839,1837,1843,1844,1846,1844,1845,1856,1867,1879,1900,1907,1919,1924,1934,1946,1951,1973,1996,1997,1998,2009,2013,2011,2014,2014,2021,2020,2018,2024,2015,2010,2009,1994,1987,1985,1977,1956,1941,1932,1928,1920,1909,1896,1887,1872,1859,1846,1836,1829,1826,1832,1832,1838,1838,1834,1831,1828,1825,1828,1838,1836,1832,1830,1826,1831,1822,1817,1825,1832,1841,1837,1829,1826,1830,1830,1828,1830,1836,1844,1842,1834,1835,1829,1833,1839,1830,1834,1820,1795,1778,1760,1776,1840,1936,2020,2104,2184,2264,2352,2432,2514,2601,2683,2776,2870,2951,3021,3094,3190,3262,3243,3154,3060,2968,2868,2772,2676,2590,2490,2392,2298,2194,2104,2016,1905,1806,1719,1657,1652,1659,1688,1722,1743,1766,1795,1810,1818,1818,1819,1814,1809,1812,1818,1828,1827,1818,1818,1816,1818,1819,1817,1822,1823,1824,1822,1812,1815,1815,1821,1822,1826,1822,1820,1821,1828,1825,1821,1818,1828,1827,1825,1832,1836,1842,1861,1880,1888,1901,1915,1918,1929,1942,1955,1970,1978,1987,2002,2015,2028,2048,2055,2073,2102,2120,2127,2136,2156,2162,2174,2184,2195,2202,2210,2213,2208,2210,2220,2221,2226,2233,2236,2233,2230,2241,2242,2240,2236,2240,2237,2238,2232,2222,2220,2224,2218,2216,2212,2206,2208,2197,2188,2188,2172,2151,2142,2126,2114,2094,2079,2064,2043,2025,2016,2004,1996,1977,1966,1953,1944,1929,1917,1910,1896,1886,1866,1851,1837,1820,1806,1808,1816,1823,1824,1824,1819,1820,1820,1824,1826,1825,1821,1821,1820,1824,1822,1822,1825,1827,1826,1825,1816,1815,1818,1823,1824,1825,1822,1825,1824,1821,1820,1822,1824,1829,1827,1825,1824,1821,1822,1820,1820,1824,1826,1828,1824,1820,1822,1823,1820,1825,1826,1826,1827,1822,1821,1819,1822,1825,1827,1823,1826,1824,1823,1828,1820,1820,1822,1824,1830,1826,1824,1824,1826,1828,1829,1823,1828,1828,1828,1825,1822,1823,1830,1830,1825,1828,1826,1826,1830,1825,1829,1826,1828,1831,1830,1826,1825,1826,1831,1831,1827,1832,1830,1829,1827,1825,1825,1830,1828,1831,1829,1827,1825,1829,1827,1825,1827,1831,1834,1830,1827,1826,1830,1831,1830,1831,1832,1832,1830,1832,1826,1827,1833,1834,1833,1833,1830,1832,1834,1826,1830,1832,1832,1834,1835,1828,1828,1830,1832,1832,1832,1835,1836,1835,1834,1826,1826,1832,1835,1835,1834,1834,1832,1836,1830,1833,1832,1832,1836,1834,1836,1834,1831,1829,1839,1846,1862,1871,1880,1894,1902,1906,1923,1937,1942,1956,1976,1991,1988,1999,2003,2009,2008,2010,2013,2012,2009,2008,2009,2009,2005,2001,1992,1983,1975,1962,1939,1930,1932,1922,1912,1897,1880,1872,1857,1847,1838,1832,1828,1826,1822,1823,1825,1828,1829,1827,1827,1829,1830,1829,1823,1820,1825,1826,1824,1820,1814,1819,1824,1827,1823,1822,1823,1826,1824,1819,1820,1827,1836,1833,1834,1831,1832,1831,1824,1825,1818,1800,1781,1764,1763,1814,1890,1977,2063,2140,2228,2323,2404,2478,2558,2640,2731,2823,2919,2990,3060,3152,3230,3245,3183,3091,3011,2908,2813,2716,2626,2523,2426,2331,2240,2153,2052,1951,1838,1768,1675,1640,1649,1672,1703,1736,1755,1775,1798,1807,1809,1816,1821,1816,1816,1814,1817,1824,1820,1821,1818,1818,1820,1821,1815,1820,1820,1818,1825,1817,1820,1825,1828,1823,1821,1813,1821,1826,1830,1836,1823,1821,1829,1816,1826,1834,1842,1856,1871,1878,1889,1910,1914,1926,1933,1952,1972,1972,1978,1989,2002,2018,2042,2059,2072,2092,2114,2122,2131,2148,2162,2172,2189,2196,2198,2201,2208,2206,2214,2220,2225,2229,2233,2238,2234,2231,2242,2248,2248,2248,2241,2240,2240,2236,2228,2224,2228,2231,2225,2217,2213,2208,2204,2201,2200,2189,2173,2152,2144,2128,2109,2098,2086,2070,2053,2034,2024,2011,2001,1982,1974,1966,1957,1940,1926,1915,1904,1892,1876,1864,1850,1834,1820,1826,1835,1831,1835,1838,1838,1838,1836,1838,1838,1835,1834,1838,1839,1841,1840,1837,1836,1836,1840,1840,1840,1838,1843,1846,1838,1837,1835,1838,1847,1843,1843,1840,1842,1841,1839,1840,1843,1850,1852,1846,1839,1842,1839,1846,1844,1841,1841,1848,1847,1844,1840,1840,1843,1848,1847,1847,1848,1842,1844,1840,1842,1848,1845,1850,1848,1844,1840,1844,1846,1850,1848,1850,1849,1848,1846,1846,1843,1849,1851,1848,1850,1849,1846,1850,1845,1848,1852,1851,1855,1852,1852,1848,1848,1852,1852,1854,1852,1855,1855,1854,1850,1849,1854,1860,1858,1858,1852,1855,1857,1851,1852,1853,1858,1859,1854,1852,1850,1850,1855,1854,1857,1858,1859,1856,1852,1854,1852,1854,1860,1856,1859,1859,1857,1856,1851,1854,1856,1862,1862,1861,1854,1855,1852,1855,1859,1856,1860,1862,1858,1854,1854,1850,1856,1860,1860,1860,1858,1858,1860,1858,1859,1863,1862,1865,1863,1856,1857,1858,1863,1861,1858,1860,1860,1858,1863,1860,1869,1890,1896,1919,1930,1934,1938,1949,1954,1968,1987,2015,2016,2013,2019,2028,2027,2031,2036,2041,2038,2041,2037,2029,2026,2023,2016,2014,2008,1998,1977,1956,1954,1944,1935,1932,1916,1908,1892,1875,1860,1854,1850,1850,1850,1850,1850,1851,1851,1847,1847,1847,1851,1855,1856,1845,1843,1845,1849,1844,1842,1844,1852,1855,1848,1842,1842,1848,1854,1847,1849,1855,1858,1860,1856,1854,1850,1854,1856,1851,1852,1840,1822,1798,1780,1798,1863,1941,2021,2104,2193,2278,2370,2446,2519,2608,2695,2782,2877,2962,3033,3108,3209,3279,3265,3173,3083,2994,2892,2801,2704,2614,2518,2415,2317,2224,2132,2040,1931,1832,1751,1682,1668,1679,1706,1737,1766,1793,1815,1834,1836,1835,1836,1836,1835,1834,1838,1847,1844,1837,1836,1836,1840,1842,1841,1844,1844,1844,1838,1838,1838,1843,1847,1845,1852,1844,1839,1843,1842,1852,1846,1843,1850,1847,1843,1849,1856,1863,1878,1898,1911,1926,1933,1936,1946,1956,1978,1991,1995,2010,2017,2030,2050,2064,2077,2097,2123,2140,2148,2158,2176,2186,2195,2209,2216,2227,2232,2229,2235,2230,2239,2249,2251,2257,2262,2256,2252,2264,2262,2264,2266,2264,2259,2259,2252,2243,2238,2243,2248,2241,2238,2233,2226,2217,2213,2209,2198,2179,2167,2160,2135,2120,2106,2085,2068,2055,2044,2034,2020,2001,1988,1979,1973,1962,1944,1932,1924,1911,1891,1879,1867,1854,1836,1832,1844,1846,1846,1848,1845,1845,1850,1849,1851,1850,1844,1845,1843,1847,1850,1846,1846,1850,1850,1848,1845,1844,1846,1852,1849,1850,1848,1848,1850,1843,1846,1851,1853,1851,1852,1844,1841,1844,1848,1848,1850,1847,1852,1852,1849,1848,1844,1848,1854,1853,1851,1848,1848,1853,1849,1848,1853,1856,1852,1854,1846,1846,1850,1851,1856,1854,1849,1850,1851,1856,1853,1848,1850,1852,1854,1852,1848,1848,1852,1847,1847,1850,1851,1857,1855,1850,1850,1851,1856,1855,1854,1855,1854,1852,1849,1848,1850,1851,1853,1852,1854,1851,1850,1852,1851,1850,1850,1853,1858,1853,1849,1846,1850,1850,1856,1851,1850,1856,1856,1848,1847,1845,1850,1854,1853,1852,1850,1853,1850,1849,1848,1851,1850,1854,1853,1847,1848,1849,1848,1851,1850,1852,1857,1850,1848,1849,1846,1852,1851,1852,1854,1850,1852,1853,1850,1852,1854,1851,1854,1855,1850,1853,1851,1850,1852,1852,1853,1853,1852,1850,1849,1849,1853,1853,1860,1868,1876,1879,1894,1908,1917,1928,1940,1952,1959,1962,1989,2005,2004,2015,2022,2027,2026,2025,2027,2029,2025,2030,2030,2024,2022,2016,2007,1998,1988,1980,1960,1946,1945,1937,1922,1912,1900,1889,1876,1865,1851,1846,1839,1836,1837,1835,1838,1842,1842,1840,1834,1834,1840,1844,1838,1832,1834,1846,1838,1830,1826,1830,1842,1846,1840,1834,1836,1840,1834,1835,1835,1846,1854,1849,1848,1840,1837,1843,1837,1839,1833,1814,1796,1777,1768,1815,1888,1970,2069,2151,2232,2319,2400,2474,2564,2646,2731,2825,2912,2998,3068,3148,3227,3256,3200,3109,3028,2940,2834,2735,2649,2557,2450,2358,2261,2176,2076,1973,1866,1790,1694,1654,1662,1678,1717,1742,1761,1786,1806,1817,1825,1826,1833,1830,1822,1821,1825,1836,1835,1830,1831,1834,1829,1830,1825,1830,1832,1831,1836,1830,1828,1834,1837,1835,1836,1833,1832,1836,1844,1842,1830,1830,1838,1831,1842,1846,1858,1862,1878,1892,1896,1920,1925,1934,1948,1960,1975,1983,1988,2004,2016,2032,2053,2065,2075,2099,2122,2131,2146,2164,2173,2186,2196,2204,2210,2212,2220,2226,2226,2230,2234,2239,2242,2249,2249,2247,2254,2261,2260,2254,2254,2249,2250,2248,2243,2236,2238,2240,2235,2232,2222,2222,2219,2209,2208,2200,2178,2168,2153,2136,2124,2107,2097,2080,2056,2042,2030,2019,2010,1990,1981,1974,1962,1945,1931,1917,1912,1902,1880,1868,1856,1832,1819,1826,1836,1843,1841,1844,1841,1840,1838,1842,1844,1841,1843,1844,1846,1842,1840,1842,1838,1843,1846,1844,1847,1842,1843,1843,1842,1841,1841,1846,1848,1847,1840,1839,1842,1843,1844,1844,1846,1850,1847,1845,1846,1841,1851,1848,1847,1850,1844,1846,1849,1847,1842,1846,1852,1852,1853,1846,1844,1850,1849,1851,1852,1849,1854,1855,1852,1848,1846,1849,1852,1850,1851,1852,1850,1850,1847,1848,1848,1853,1855,1852,1850,1850,1849,1848,1850,1848,1852,1856,1852,1850,1853,1845,1854,1856,1854,1855,1851,1853,1854,1852,1855,1855,1855,1858,1858,1852,1852,1854,1854,1859,1854,1856,1860,1858,1854,1858,1855,1859,1863,1862,1859,1861,1855,1859,1856,1859,1862,1862,1868,1865,1859,1862,1862,1864,1866,1864,1865,1870,1862,1866,1860,1861,1864,1869,1866,1866,1862,1864,1865,1864,1862,1866,1867,1872,1869,1861,1860,1865,1867,1867,1868,1867,1870,1867,1866,1865,1861,1870,1873,1872,1871,1867,1869,1868,1864,1872,1885,1898,1910,1926,1931,1942,1944,1958,1971,1982,1999,2020,2022,2023,2032,2036,2044,2048,2048,2055,2049,2043,2046,2041,2043,2042,2032,2024,2015,2006,1987,1969,1963,1963,1951,1944,1932,1916,1902,1886,1873,1867,1867,1859,1862,1859,1862,1861,1858,1858,1859,1859,1864,1868,1865,1854,1854,1857,1866,1859,1852,1854,1860,1861,1863,1856,1856,1864,1862,1862,1861,1862,1868,1869,1865,1868,1866,1870,1871,1861,1860,1852,1835,1814,1795,1799,1866,1942,2026,2116,2200,2285,2376,2453,2531,2618,2703,2784,2880,2969,3046,3121,3213,3284,3277,3189,3101,3013,2911,2820,2720,2632,2536,2427,2331,2235,2152,2068,1958,1855,1772,1696,1682,1688,1716,1755,1780,1804,1828,1840,1847,1847,1855,1855,1850,1849,1856,1861,1862,1855,1852,1853,1851,1857,1854,1856,1854,1854,1852,1851,1848,1859,1863,1860,1858,1857,1855,1858,1859,1863,1860,1857,1860,1858,1854,1862,1868,1878,1893,1914,1922,1929,1946,1947,1958,1973,1995,2008,2012,2016,2028,2046,2058,2082,2092,2106,2134,2149,2157,2169,2188,2198,2209,2226,2233,2234,2242,2242,2242,2246,2254,2263,2265,2270,2271,2264,2265,2278,2284,2280,2282,2285,2272,2272,2267,2254,2258,2265,2262,2259,2246,2244,2242,2230,2230,2227,2216,2195,2184,2171,2152,2136,2119,2110,2088,2075,2067,2051,2032,2016,2004,1995,1987,1974,1958,1945,1937,1929,1910,1895,1885,1868,1855,1850,1852,1858,1864,1862,1865,1864,1864,1870,1866,1865,1862,1861,1868,1870,1869,1864,1863,1864,1862,1863,1864,1864,1866,1868,1868,1860,1862,1864,1862,1865,1865,1866,1871,1866,1863,1863,1860,1866,1870,1868,1870,1865,1865,1862,1864,1866,1868,1870,1872,1868,1865,1863,1862,1865,1870,1865,1864,1867,1866,1866,1866,1866,1868,1869,1867,1871,1868,1868,1869,1862,1864,1866,1872,1872,1871,1865,1865,1868,1870,1871,1865,1869,1872,1870,1869,1867,1868,1873,1873,1872,1875,1871,1870,1873,1868,1868,1868,1874,1876,1871,1868,1867,1869,1868,1871,1871,1868,1871,1874,1871,1866,1869,1870,1878,1873,1872,1871,1870,1871,1871,1875,1874,1876,1878,1877,1871,1868,1869,1870,1870,1876,1872,1873,1872,1872,1870,1868,1873,1878,1874,1874,1870,1869,1873,1871,1870,1874,1872,1876,1878,1866,1869,1868,1868,1872,1871,1872,1874,1873,1873,1874,1872,1873,1877,1878,1875,1870,1872,1872,1869,1871,1872,1872,1872,1874,1874,1881,1897,1904,1916,1934,1943,1950,1960,1967,1977,1982,2010,2027,2029,2039,2040,2044,2045,2045,2049,2056,2052,2056,2052,2040,2041,2039,2029,2022,2015,2008,1986,1966,1963,1955,1946,1938,1927,1914,1896,1884,1870,1866,1853,1855,1861,1866,1868,1866,1859,1854,1856,1857,1864,1867,1864,1860,1855,1860,1857,1848,1852,1857,1861,1866,1862,1854,1858,1857,1855,1857,1862,1868,1870,1866,1864,1863,1858,1867,1863,1865,1860,1842,1816,1798,1789,1833,1910,1992,2084,2163,2242,2324,2406,2490,2574,2662,2744,2832,2917,2995,3074,3150,3239,3284,3231,3145,3057,2965,2858,2764,2678,2594,2481,2387,2291,2201,2105,2003,1892,1817,1728,1678,1676,1686,1718,1751,1778,1804,1827,1840,1842,1838,1843,1839,1834,1843,1848,1850,1852,1845,1846,1844,1840,1839,1840,1852,1852,1847,1845,1838,1839,1848,1849,1851,1853,1847,1843,1845,1852,1855,1848,1848,1855,1847,1852,1855,1861,1869,1888,1905,1918,1939,1938,1942,1956,1974,1987,1995,2005,2017,2031,2042,2061,2072,2086,2112,2134,2144,2158,2172,2184,2190,2204,2211,2222,2233,2238,2236,2233,2237,2243,2249,2254,2260,2260,2257,2261,2264,2266,2262,2266,2263,2259,2258,2252,2242,2242,2248,2245,2243,2240,2238,2227,2218,2217,2210,2196,2176,2167,2154,2140,2121,2100,2089,2064,2059,2042,2035,2018,2003,1991,1983,1971,1960,1947,1935,1929,1910,1885,1876,1861,1846,1830,1839,1849,1853,1852,1848,1849,1844,1852,1853,1853,1855,1854,1851,1854,1850,1855,1854,1858,1858,1854,1852,1851,1852,1851,1855,1854,1854,1857,1856,1858,1850,1849,1856,1858,1859,1854,1854,1854,1852,1849,1851,1852,1859,1860,1852,1854,1853,1856,1855,1859,1855,1856,1861,1856,1859,1856,1852,1854,1860,1861,1858,1855,1858,1860,1854,1857,1861,1860,1866,1860,1858,1857,1857,1862,1861,1861,1860,1863,1860,1857,1860,1857,1858,1861,1862,1863,1858,1861,1862,1857,1857,1860,1862,1866,1864,1859,1857,1862,1860,1858,1864,1862,1864,1864,1860,1860,1853,1864,1867,1864,1867,1865,1863,1864,1863,1864,1865,1865,1866,1864,1862,1860,1863,1864,1867,1866,1862,1865,1861,1863,1866,1861,1864,1868,1864,1867,1865,1866,1866,1862,1862,1864,1865,1871,1870,1866,1866,1866,1868,1868,1868,1869,1872,1870,1866,1865,1862,1868,1868,1873,1872,1869,1867,1867,1864,1867,1871,1873,1877,1871,1868,1867,1866,1869,1870,1871,1876,1889,1899,1904,1922,1935,1946,1954,1962,1970,1979,1998,2022,2021,2024,2040,2045,2049,2044,2046,2051,2050,2050,2050,2043,2042,2039,2034,2021,2015,2007,1999,1980,1967,1964,1952,1944,1930,1914,1906,1891,1880,1870,1863,1858,1858,1856,1860,1862,1861,1862,1862,1856,1856,1860,1862,1862,1859,1859,1864,1859,1850,1854,1855,1863,1872,1864,1857,1862,1859,1855,1857,1861,1871,1876,1870,1870,1867,1863,1869,1859,1870,1859,1836,1817,1794,1805,1864,1938,2030,2123,2206,2285,2378,2450,2530,2618,2703,2786,2883,2973,3049,3120,3208,3288,3282,3201,3116,3028,2925,2830,2731,2644,2538,2440,2349,2258,2168,2072,1959,1859,1776,1706,1690,1696,1727,1762,1784,1805,1826,1842,1852,1856,1860,1861,1856,1855,1858,1861,1866,1866,1864,1864,1865,1858,1858,1863,1866,1865,1863,1862,1863,1863,1864,1867,1864,1866,1866,1865,1872,1871,1874,1865,1864,1874,1862,1872,1882,1887,1894,1912,1930,1935,1955,1956,1968,1989,2001,2013,2019,2021,2042,2058,2072,2090,2099,2112,2143,2158,2171,2181,2203,2214,2220,2228,2235,2245,2255,2257,2260,2258,2270,2270,2275,2279,2278,2282,2282,2288,2293,2289,2292,2288,2278,2280,2280,2274,2271,2272,2268,2266,2262,2258,2254,2247,2238,2240,2227,2204,2192,2180,2166,2151,2133,2120,2101,2084,2074,2059,2043,2036,2022,2013,1999,1987,1971,1958,1955,1942,1924,1911,1902,1884,1863,1855,1861,1872,1874,1875,1875,1875,1876,1873,1869,1873,1874,1876,1880,1881,1872,1874,1874,1873,1877,1876,1874,1879,1877,1876,1876,1874,1876,1878,1879,1876,1873,1873,1875,1874,1872,1873,1876,1880,1879,1874,1876,1873,1876,1876,1874,1874,1881,1879,1873,1874,1873,1874,1878,1881,1879,1876,1875,1880,1878,1879,1878,1880,1879,1877,1874,1874,1874,1876,1882,1883,1879,1882,1879,1878,1878,1877,1878,1882,1880,1882,1882,1876,1881,1880,1877,1883,1882,1885,1882,1881,1879,1878,1882,1886,1885,1882,1884,1882,1882,1886,1879,1884,1886,1886,1888,1881,1886,1882,1881,1884,1886,1884,1888,1887,1885,1882,1885,1883,1882,1886,1884,1886,1886,1886,1884,1880,1882,1886,1888,1884,1883,1884,1888,1883,1880,1889,1884,1887,1890,1884,1879,1883,1886,1890,1887,1887,1890,1889,1886,1884,1885,1890,1893,1888,1886,1885,1886,1887,1881,1885,1887,1888,1890,1890,1885,1880,1884,1884,1888,1888,1889,1890,1887,1886,1890,1894,1905,1918,1928,1948,1954,1960,1973,1982,1992,1999,2026,2049,2042,2042,2058,2060,2062,2064,2066,2070,2068,2068,2062,2060,2054,2057,2045,2039,2032,2023,1997,1984,1978,1970,1971,1961,1945,1930,1913,1900,1886,1883,1878,1879,1877,1882,1882,1876,1876,1875,1874,1879,1878,1885,1879,1873,1871,1874,1874,1870,1866,1874,1876,1878,1875,1870,1873,1881,1879,1877,1880,1884,1883,1882,1878,1883,1880,1886,1878,1878,1877,1860,1836,1814,1811,1844,1917,1997,2090,2173,2254,2340,2430,2506,2586,2670,2748,2833,2924,3012,3076,3158,3250,3301,3264,3172,3086,2994,2891,2800,2709,2622,2510,2411,2320,2226,2131,2044,1937,1844,1756,1696,1691,1707,1735,1772,1797,1816,1842,1853,1856,1858,1864,1861,1856,1862,1867,1872,1867,1864,1866,1861,1863,1863,1865,1872,1871,1863,1863,1860,1868,1871,1873,1872,1870,1867,1864,1863,1871,1875,1871,1870,1875,1864,1872,1876,1883,1892,1912,1926,1938,1952,1952,1958,1974,1991,2010,2017,2026,2036,2044,2062,2079,2092,2108,2132,2156,2167,2171,2190,2202,2211,2224,2235,2242,2252,2251,2250,2252,2254,2266,2269,2273,2279,2279,2278,2281,2287,2288,2289,2290,2286,2279,2278,2273,2265,2263,2271,2266,2260,2257,2254,2241,2234,2232,2232,2215,2194,2186,2174,2150,2138,2120,2104,2085,2074,2061,2046,2032,2016,2008,1995,1990,1971,1960,1951,1939,1922,1905,1892,1882,1862,1846,1851,1861,1862,1866,1861,1859,1863,1866,1868,1867,1862,1860,1862,1864,1866,1864,1862,1868,1867,1867,1863,1863,1868,1872,1868,1868,1864,1865,1870,1862,1864,1868,1866,1872,1869,1864,1862,1866,1866,1870,1867,1870,1870,1866,1865,1864,1867,1872,1871,1870,1869,1868,1868,1866,1863,1866,1872,1872,1875,1868,1862,1866,1864,1866,1869,1869,1873,1873,1872,1869,1872,1868,1869,1874,1873,1873,1866,1868,1869,1869,1867,1872,1873,1873,1875,1865,1868,1868,1871,1874,1871,1876,1874,1874,1871,1872,1869,1873,1873,1874,1874,1872,1870,1875,1868,1869,1871,1870,1873,1871,1871,1869,1868,1872,1873,1871,1872,1872,1872,1870,1870,1870,1874,1878,1875,1878,1872,1873,1873,1869,1870,1872,1875,1877,1874,1872,1870,1872,1873,1876,1874,1876,1879,1873,1870,1870,1870,1874,1877,1876,1878,1871,1871,1876,1874,1871,1879,1877,1880,1877,1873,1872,1873,1875,1878,1878,1875,1881,1875,1875,1874,1872,1877,1879,1879,1880,1879,1888,1908,1909,1926,1940,1951,1962,1969,1974,1984,2004,2024,2034,2034,2049,2052,2050,2048,2050,2056,2057,2059,2058,2054,2046,2044,2040,2027,2019,2017,2003,1988,1971,1964,1955,1948,1940,1924,1912,1900,1888,1878,1871,1861,1862,1869,1867,1872,1870,1868,1862,1867,1860,1867,1872,1864,1866,1865,1862,1859,1854,1851,1863,1867,1877,1870,1858,1861,1864,1863,1865,1866,1876,1878,1871,1872,1871,1864,1870,1865,1871,1866,1839,1814,1796,1801,1865,1946,2026,2118,2201,2282,2371,2445,2525,2614,2699,2782,2883,2969,3043,3114,3206,3279,3288,3207,3114,3024,2923,2832,2735,2644,2548,2452,2356,2263,2166,2072,1962,1859,1783,1709,1685,1695,1718,1752,1778,1797,1821,1845,1853,1859,1858,1854,1850,1851,1855,1862,1866,1862,1859,1858,1856,1855,1852,1863,1869,1866,1859,1856,1852,1860,1860,1863,1869,1871,1865,1865,1862,1869,1874,1861,1863,1868,1865,1873,1874,1881,1891,1910,1926,1940,1955,1956,1964,1977,1995,2003,2006,2022,2036,2054,2067,2081,2092,2107,2137,2157,2167,2179,2197,2203,2212,2222,2234,2240,2254,2254,2256,2254,2259,2266,2268,2273,2279,2275,2280,2285,2282,2284,2282,2283,2279,2281,2281,2271,2262,2265,2265,2262,2262,2258,2254,2247,2238,2237,2226,2203,2192,2183,2169,2152,2134,2114,2100,2084,2072,2066,2048,2036,2025,2009,1998,1986,1973,1964,1959,1945,1925,1912,1898,1884,1860,1859,1870,1878,1882,1880,1877,1876,1877,1880,1886,1879,1881,1878,1882,1879,1880,1877,1880,1882,1881,1885,1882,1880,1880,1880,1881,1883,1884,1887,1881,1876,1879,1879,1883,1884,1881,1884,1885,1884,1880,1877,1878,1884,1885,1885,1884,1883,1884,1886,1885,1886,1886,1889,1888,1885,1884,1882,1884,1884,1888,1886,1889,1890,1885,1886,1884,1884,1890,1892,1889,1889,1886,1886,1888,1888,1886,1890,1892,1894,1892,1889,1887,1887,1888,1892,1889,1887,1891,1888,1889,1884,1888,1893,1892,1892,1893,1888,1889,1893,1890,1894,1896,1894,1898,1893,1890,1891,1893,1890,1890,1890,1895,1892,1890,1892,1888,1891,1893,1897,1896,1895,1892,1893,1897,1889,1891,1894,1896,1900,1894,1890,1892,1892,1897,1898,1893,1899,1896,1894,1890,1889,1893,1896,1897,1899,1898,1896,1895,1896,1895,1898,1898,1894,1902,1903,1894,1900,1894,1896,1902,1897,1900,1900,1896,1895,1894,1893,1898,1897,1904,1897,1897,1897,1896,1893,1899,1905,1919,1928,1937,1948,1963,1968,1981,1989,2001,2009,2035,2052,2049,2050,2062,2070,2074,2074,2076,2078,2075,2075,2072,2068,2070,2069,2061,2049,2040,2033,2008,1991,1995,1986,1978,1971,1947,1939,1918,1907,1902,1895,1889,1887,1886,1886,1888,1888,1888,1888,1885,1890,1891,1890,1886,1883,1882,1888,1890,1879,1877,1878,1884,1888,1887,1886,1887,1892,1889,1881,1886,1890,1892,1892,1894,1894,1892,1892,1886,1889,1882,1871,1851,1826,1824,1854,1921,1999,2080,2168,2261,2348,2436,2502,2578,2675,2757,2846,2936,3022,3099,3175,3259,3313,3279,3183,3101,3014,2909,2818,2724,2636,2526,2424,2335,2247,2152,2057,1944,1856,1766,1709,1702,1716,1752,1784,1812,1832,1853,1866,1867,1872,1878,1874,1874,1875,1873,1882,1881,1874,1881,1880,1879,1876,1875,1879,1881,1876,1876,1871,1877,1882,1882,1878,1883,1874,1879,1880,1888,1891,1882,1878,1884,1876,1884,1890,1898,1908,1926,1938,1946,1965,1967,1974,1990,2007,2024,2028,2033,2049,2056,2074,2095,2107,2122,2143,2165,2176,2182,2200,2222,2231,2241,2248,2254,2260,2266,2262,2264,2271,2279,2288,2291,2290,2290,2287,2291,2304,2305,2304,2304,2295,2292,2292,2289,2282,2280,2288,2283,2278,2272,2267,2262,2256,2251,2251,2238,2211,2199,2184,2163,2151,2141,2123,2105,2089,2077,2064,2050,2034,2030,2016,2008,1993,1976,1973,1960,1942,1921,1911,1900,1887,1865,1867,1874,1878,1881,1886,1881,1883,1884,1885,1887,1878,1882,1884,1887,1884,1880,1881,1878,1884,1882,1880,1885,1884,1889,1887,1881,1881,1882,1882,1886,1884,1883,1888,1885,1882,1883,1881,1885,1885,1888,1885,1882,1882,1886,1883,1884,1885,1887,1891,1886,1885,1884,1883,1887,1890,1888,1890,1882,1886,1884,1882,1884,1886,1890,1891,1887,1884,1882,1885,1885,1883,1885,1889,1889,1886,1882,1882,1884,1884,1891,1887,1890,1887,1885,1883,1884,1884,1886,1888,1889,1886,1885,1883,1886,1888,1885,1890,1888,1892,1888,1883,1885,1886,1885,1890,1883,1886,1888,1885,1887,1882,1885,1892,1891,1889,1887,1882,1886,1888,1886,1890,1885,1888,1888,1889,1884,1883,1884,1882,1886,1884,1886,1886,1885,1886,1882,1884,1887,1888,1891,1885,1878,1881,1887,1886,1886,1887,1890,1890,1886,1884,1887,1879,1881,1886,1888,1889,1890,1885,1885,1884,1882,1886,1892,1888,1886,1884,1884,1887,1884,1885,1887,1885,1892,1887,1884,1890,1897,1913,1925,1935,1956,1962,1966,1972,1978,1990,2010,2042,2041,2040,2049,2058,2058,2054,2058,2066,2066,2066,2063,2056,2054,2050,2052,2041,2029,2028,2015,1992,1977,1974,1964,1959,1952,1936,1921,1904,1895,1882,1874,1868,1872,1875,1878,1879,1870,1873,1873,1872,1874,1874,1880,1871,1865,1868,1867,1869,1868,1866,1872,1876,1880,1870,1863,1868,1866,1872,1872,1876,1880,1881,1880,1880,1873,1876,1877,1873,1878,1866,1845,1820,1802,1812,1872,1946,2025,2110,2201,2282,2369,2451,2527,2617,2708,2783,2874,2964,3042,3117,3205,3282,3294,3215,3125,3041,2946,2841,2752,2661,2570,2463,2364,2270,2182,2085,1986,1891,1801,1723,1690,1695,1718,1754,1784,1807,1830,1853,1860,1857,1864,1857,1858,1860,1863,1870,1868,1868,1865,1863,1863,1862,1863,1868,1877,1871,1864,1863,1859,1864,1871,1869,1879,1874,1864,1867,1864,1872,1880,1869,1871,1876,1864,1875,1881,1886,1894,1918,1933,1940,1959,1952,1964,1979,1996,2016,2016,2029,2046,2054,2069,2083,2098,2115,2141,2166,2170,2181,2202,2211,2217,2231,2240,2248,2259,2255,2251,2256,2262,2272,2276,2278,2290,2284,2278,2286,2284,2289,2291,2290,2285,2280,2275,2272,2265,2268,2270,2268,2263,2262,2254,2242,2238,2234,2225,2211,2194,2188,2168,2148,2133,2115,2106,2091,2077,2068,2052,2035,2024,2015,1998,1987,1976,1968,1959,1946,1924,1908,1898,1886,1868,1855,1867,1876,1876,1877,1872,1876,1878,1877,1877,1876,1872,1875,1874,1877,1877,1878,1880,1878,1880,1876,1876,1877,1878,1880,1879,1881,1881,1880,1877,1874,1881,1884,1885,1886,1881,1879,1882,1878,1877,1880,1885,1882,1886,1885,1882,1880,1880,1883,1886,1882,1887,1884,1883,1882,1879,1883,1884,1885,1884,1881,1880,1884,1882,1884,1883,1882,1886,1885,1881,1882,1883,1883,1883,1886,1880,1889,1886,1885,1884,1881,1881,1888,1888,1887,1884,1883,1882,1882,1886,1885,1886,1890,1889,1889,1884,1884,1884,1891,1891,1888,1891,1889,1888,1887,1882,1893,1892,1896,1893,1892,1887,1892,1890,1894,1897,1897,1897,1899,1897,1890,1892,1894,1897,1904,1899,1902,1898,1898,1897,1894,1898,1898,1900,1902,1901,1893,1897,1899,1900,1898,1903,1903,1903,1903,1896,1898,1899,1901,1905,1898,1905,1901,1900,1900,1896,1898,1906,1902,1903,1904,1902,1903,1899,1900,1901,1905,1906,1903,1903,1901,1899,1902,1903,1906,1904,1907,1914,1920,1931,1934,1956,1973,1977,1985,1996,2003,2012,2035,2057,2059,2062,2076,2080,2076,2075,2080,2086,2086,2086,2080,2077,2078,2072,2061,2049,2050,2039,2024,2007,2000,1991,1986,1972,1956,1948,1934,1923,1912,1904,1891,1890,1898,1896,1899,1897,1899,1895,1892,1894,1890,1902,1900,1895,1896,1892,1891,1890,1882,1886,1894,1900,1903,1893,1892,1892,1892,1891,1893,1899,1903,1905,1901,1898,1894,1894,1898,1896,1900,1886,1860,1834,1820,1847,1918,1997,2080,2170,2250,2340,2422,2498,2574,2664,2754,2837,2935,3018,3093,3166,3254,3323,3309,3206,3120,3033,2930,2834,2738,2649,2548,2447,2356,2262,2173,2074,1968,1866,1782,1724,1710,1724,1758,1791,1814,1831,1860,1881,1884,1892,1887,1882,1875,1880,1886,1892,1890,1891,1890,1885,1883,1880,1881,1887,1892,1885,1889,1891,1887,1891,1884,1892,1894,1893,1891,1890,1890,1899,1889,1886,1896,1889,1895,1900,1906,1910,1928,1946,1956,1974,1976,1987,2000,2012,2027,2032,2042,2059,2076,2090,2100,2114,2128,2147,2171,2183,2196,2216,2230,2235,2239,2252,2262,2271,2283,2278,2280,2283,2289,2296,2292,2302,2310,2303,2309,2312,2310,2311,2307,2308,2304,2305,2305,2296,2291,2289,2289,2287,2285,2279,2274,2268,2264,2262,2245,2221,2212,2209,2187,2172,2152,2135,2113,2098,2090,2076,2065,2050,2038,2025,2014,1999,1987,1978,1968,1954,1938,1925,1912,1891,1872,1877,1894,1898,1901,1896,1892,1896,1892,1893,1894,1897,1900,1900,1897,1890,1892,1894,1897,1902,1897,1899,1898,1894,1896,1895,1897,1902,1903,1903,1896,1894,1898,1898,1901,1897,1900,1900,1898,1896,1896,1894,1894,1898,1902,1900,1897,1897,1895,1897,1890,1898,1902,1901,1905,1899,1897,1898,1895,1897,1896,1901,1903,1904,1898,1896,1896,1898,1900,1903,1897,1900,1900,1896,1903,1893,1897,1904,1903,1906,1902,1897,1900,1899,1901,1901,1898,1905,1904,1900,1898,1896,1900,1903,1904,1902,1902,1902,1900,1898,1897,1897,1905,1903,1906,1903,1898,1901,1898,1904,1901,1900,1907,1904,1901,1899,1901,1902,1908,1906,1902,1904,1903,1904,1902,1900,1902,1907,1902,1905,1901,1899,1904,1902,1902,1900,1904,1902,1904,1902,1900,1900,1902,1904,1905,1902,1901,1901,1899,1903,1900,1898,1904,1904,1907,1900,1902,1901,1898,1904,1902,1901,1909,1903,1903,1897,1897,1902,1903,1906,1900,1905,1901,1901,1902,1897,1899,1904,1916,1934,1933,1946,1962,1974,1981,1989,2000,2012,2024,2046,2054,2052,2064,2073,2079,2071,2076,2084,2083,2081,2077,2076,2072,2076,2072,2058,2050,2041,2030,2011,2000,1996,1988,1982,1963,1944,1935,1921,1914,1904,1894,1886,1889,1888,1890,1889,1891,1895,1892,1895,1888,1890,1894,1890,1888,1890,1891,1890,1883,1878,1882,1888,1894,1890,1883,1886,1890,1885,1882,1886,1889,1898,1900,1899,1896,1890,1893,1888,1886,1882,1862,1843,1827,1824,1873,1944,2027,2123,2211,2295,2375,2459,2536,2612,2706,2788,2884,2974,3049,3127,3205,3284,3307,3232,3146,3061,2970,2867,2775,2681,2587,2476,2384,2293,2209,2106,2012,1910,1828,1736,1697,1702,1728,1766,1795,1809,1834,1855,1864,1871,1874,1874,1875,1869,1870,1867,1874,1873,1877,1876,1877,1875,1871,1872,1877,1872,1868,1878,1875,1881,1877,1878,1884,1879,1876,1876,1875,1886,1890,1869,1873,1881,1875,1886,1892,1894,1904,1926,1936,1946,1960,1961,1979,1992,2012,2018,2024,2034,2045,2062,2078,2095,2110,2122,2146,2162,2172,2186,2206,2218,2224,2239,2246,2254,2259,2258,2260,2267,2272,2282,2281,2284,2291,2285,2287,2293,2295,2304,2300,2293,2286,2282,2284,2280,2278,2278,2276,2274,2270,2264,2256,2252,2250,2247,2241,2216,2200,2194,2176,2158,2140,2127,2117,2099,2081,2065,2051,2043,2031,2020,2009,1998,1982,1966,1959,1946,1933,1918,1906,1896,1870,1856,1867,1876,1877,1879,1880,1884,1884,1880,1878,1878,1879,1882,1883,1881,1881,1879,1882,1885,1882,1882,1886,1884,1885,1881,1879,1883,1880,1881,1882,1882,1890,1885,1884,1880,1877,1882,1886,1886,1884,1885,1886,1884,1883,1879,1882,1886,1890,1889,1884,1882,1883,1884,1889,1888,1886,1891,1889,1886,1881,1884,1886,1888,1888,1887,1890,1888,1886,1886,1884,1884,1890,1890,1890,1886,1882,1884,1885,1887,1886,1888,1891,1886,1886,1882,1884,1887,1889,1889,1888,1892,1892,1888,1889,1884,1886,1892,1890,1892,1888,1886,1888,1888,1890,1893,1892,1893,1891,1886,1887,1890,1892,1894,1897,1894,1892,1894,1893,1894,1886,1890,1894,1892,1897,1891,1889,1894,1888,1896,1893,1893,1898,1896,1894,1894,1892,1895,1896,1899,1894,1898,1894,1893,1895,1891,1893,1898,1896,1901,1895,1893,1895,1890,1896,1893,1894,1900,1896,1895,1892,1893,1895,1899,1896,1898,1900,1894,1898,1898,1897,1896,1900,1900,1904,1898,1894,1900,1903,1916,1928,1935,1960,1968,1977,1977,1985,2000,2011,2032,2049,2049,2056,2066,2073,2066,2071,2079,2083,2082,2077,2073,2072,2066,2067,2055,2044,2045,2033,2018,1995,1987,1984,1976,1971,1953,1940,1928,1914,1902,1890,1887,1889,1889,1893,1892,1888,1887,1890,1884,1885,1888,1895,1894,1885,1880,1881,1893,1882,1882,1884,1888,1892,1894,1887,1881,1882,1890,1889,1898,1890,1898,1901,1892,1898,1894,1899,1903,1896,1897,1877,1857,1842,1826,1841,1911,1984,2080,2164,2244,2322,2416,2502,2582,2670,2745,2829,2927,3010,3086,3159,3248,3321,3307,3212,3120,3033,2938,2846,2748,2658,2560,2456,2359,2265,2171,2080,1975,1876,1795,1719,1707,1726,1756,1792,1814,1838,1865,1880,1882,1880,1882,1885,1885,1890,1891,1896,1894,1890,1892,1885,1886,1888,1890,1894,1892,1890,1892,1885,1888,1889,1893,1900,1900,1893,1888,1887,1892,1904,1896,1892,1899,1895,1895,1903,1905,1913,1932,1952,1963,1973,1980,1987,2000,2014,2030,2041,2056,2062,2074,2082,2097,2117,2136,2154,2176,2189,2199,2212,2232,2235,2249,2264,2271,2280,2284,2281,2285,2282,2294,2298,2300,2312,2314,2307,2304,2316,2316,2318,2321,2315,2309,2309,2308,2297,2288,2294,2297,2294,2293,2282,2274,2267,2264,2268,2248,2226,2222,2211,2188,2166,2152,2142,2126,2113,2096,2082,2073,2057,2042,2026,2020,2010,1997,1988,1974,1959,1946,1932,1920,1899,1883,1890,1901,1898,1897,1897,1902,1906,1906,1904,1904,1905,1900,1902,1902,1904,1905,1903,1908,1902,1900,1901,1902,1902,1902,1900,1905,1903,1900,1899,1900,1903,1906,1905,1904,1904,1904,1902,1903,1899,1902,1906,1903,1907,1904,1901,1905,1900,1903,1908,1905,1911,1908,1906,1901,1902,1906,1910,1907,1903,1903,1906,1906,1904,1904,1906,1907,1908,1912,1905,1902,1907,1905,1907,1908,1906,1911,1910,1907,1903,1901,1905,1908,1910,1909,1910,1912,1908,1909,1903,1906,1915,1911,1914,1906,1903,1910,1906,1912,1912,1910,1917,1913,1912,1907,1908,1909,1915,1914,1914,1910,1912,1909,1910,1908,1911,1918,1914,1918,1911,1907,1911,1912,1914,1912,1914,1918,1914,1912,1912,1913,1915,1916,1916,1915,1914,1913,1911,1912,1908,1915,1916,1918,1914,1912,1909,1915,1910,1912,1914,1913,1919,1915,1909,1910,1910,1913,1916,1916,1916,1913,1911,1910,1912,1912,1914,1917,1916,1919,1914,1910,1915,1912,1910,1915,1911,1921,1920,1925,1934,1941,1957,1975,1988,1991,2004,2007,2019,2030,2051,2067,2068,2075,2091,2089,2087,2087,2092,2096,2093,2092,2093,2089,2085,2080,2064,2065,2060,2051,2027,2009,2006,1998,1990,1978,1964,1959,1940,1931,1914,1906,1902,1899,1901,1906,1905,1908,1907,1900,1901,1901,1904,1911,1907,1900,1900,1902,1900,1894,1886,1898,1904,1911,1908,1896,1896,1901,1900,1901,1902,1906,1916,1910,1907,1902,1900,1908,1905,1903,1896,1876,1855,1838,1837,1885,1966,2050,2133,2224,2296,2389,2472,2545,2628,2713,2793,2898,2987,3060,3126,3204,3300,3324,3266,3175,3081,2986,2890,2798,2704,2601,2521,2419,2326,2222,2132,2031,1927,1848,1765,1719,1723,1742,1768,1799,1817,1850,1872,1884,1884,1880,1886,1884,1882,1879,1888,1900,1895,1892,1889,1886,1889,1888,1889,1896,1891,1894,1892,1883,1885,1889,1896,1898,1897,1892,1895,1893,1895,1898,1887,1886,1902,1890,1900,1902,1900,1916,1936,1953,1960,1977,1983,1994,2005,2018,2030,2042,2052,2063,2075,2090,2106,2120,2134,2157,2178,2194,2206,2224,2229,2237,2250,2259,2268,2278,2279,2280,2284,2283,2290,2287,2296,2308,2305,2299,2306,2309,2311,2307,2302,2304,2304,2302,2297,2287,2284,2290,2286,2281,2276,2274,2270,2264,2259,2249,2229,2216,2204,2192,2170,2155,2141,2124,2108,2090,2077,2071,2062,2043,2028,2014,2006,1989,1980,1969,1962,1947,1925,1912,1898,1877,1867,1880,1887,1887,1886,1888,1888,1887,1886,1888,1892,1890,1892,1888,1887,1890,1890,1891,1890,1887,1893,1889,1888,1885,1885,1891,1897,1895,1894,1893,1888,1889,1891,1887,1889,1892,1892,1896,1890,1886,1890,1888,1890,1890,1891,1898,1895,1892,1891,1886,1890,1897,1896,1897,1893,1894,1892,1892,1889,1891,1897,1896,1898,1893,1890,1892,1890,1892,1894,1894,1899,1895,1893,1890,1889,1896,1898,1895,1895,1894,1894,1891,1894,1892,1894,1898,1902,1901,1894,1894,1896,1896,1894,1893,1894,1900,1896,1890,1893,1889,1894,1895,1895,1896,1895,1892,1894,1893,1892,1894,1898,1901,1901,1896,1894,1897,1896,1897,1897,1897,1901,1899,1896,1895,1892,1896,1899,1899,1899,1897,1900,1896,1897,1894,1898,1898,1897,1903,1897,1895,1898,1899,1899,1902,1900,1903,1900,1900,1898,1893,1899,1902,1906,1906,1901,1901,1899,1898,1896,1898,1901,1904,1908,1902,1898,1904,1900,1900,1902,1899,1903,1904,1901,1902,1898,1901,1907,1907,1920,1930,1934,1960,1968,1973,1982,1994,2005,2018,2034,2048,2056,2054,2068,2074,2075,2080,2080,2081,2079,2074,2078,2078,2076,2070,2064,2054,2044,2034,2020,2001,1994,1993,1988,1969,1958,1948,1930,1918,1907,1900,1892,1889,1891,1891,1891,1894,1896,1894,1890,1890,1892,1896,1898,1888,1888,1894,1896,1892,1882,1878,1888,1890,1898,1888,1886,1894,1894,1887,1886,1891,1898,1905,1902,1903,1895,1892,1895,1888,1893,1884,1863,1839,1824,1830,1896,1976,2061,2148,2233,2316,2409,2487,2562,2645,2728,2820,2921,3007,3080,3152,3244,3314,3307,3220,3127,3046,2947,2846,2750,2654,2560,2457,2361,2268,2179,2090,1978,1875,1788,1723,1712,1727,1756,1788,1808,1826,1856,1874,1878,1878,1887,1885,1879,1880,1882,1891,1887,1886,1888,1885,1884,1885,1883,1886,1884,1886,1889,1889,1886,1888,1891,1891,1892,1884,1888,1890,1894,1899,1893,1883,1891,1893,1890,1897,1904,1912,1928,1942,1950,1962,1979,1982,1996,2009,2022,2035,2038,2049,2063,2078,2094,2112,2126,2138,2162,2182,2189,2204,2225,2231,2244,2253,2258,2263,2270,2272,2278,2280,2291,2293,2294,2298,2305,2302,2301,2311,2314,2317,2312,2307,2305,2302,2301,2297,2290,2298,2294,2288,2282,2276,2276,2272,2266,2265,2246,2227,2217,2202,2186,2170,2160,2143,2124,2105,2093,2084,2067,2059,2045,2035,2025,2013,1998,1983,1975,1964,1948,1934,1920,1903,1883,1882,1892,1897,1899,1905,1907,1904,1898,1897,1903,1903,1904,1904,1902,1907,1904,1903,1903,1900,1904,1906,1905,1906,1905,1904,1903,1902,1904,1903,1906,1909,1908,1904,1903,1905,1907,1908,1909,1907,1912,1910,1909,1908,1904,1906,1914,1912,1912,1906,1906,1906,1907,1904,1906,1912,1911,1910,1908,1907,1909,1907,1909,1908,1907,1914,1912,1911,1911,1905,1908,1912,1914,1913,1910,1913,1910,1907,1908,1910,1914,1921,1918,1913,1908,1912,1911,1913,1915,1912,1919,1917,1913,1911,1912,1914,1916,1915,1915,1914,1917,1912,1912,1913,1913,1919,1916,1916,1911,1915,1913,1918,1918,1918,1916,1923,1919,1917,1917,1913,1919,1917,1919,1921,1916,1912,1916,1914,1913,1912,1921,1922,1922,1915,1917,1917,1918,1920,1919,1917,1924,1920,1916,1915,1915,1921,1924,1920,1923,1920,1919,1918,1916,1918,1920,1920,1923,1923,1914,1919,1920,1917,1920,1920,1921,1927,1922,1921,1918,1911,1922,1923,1920,1922,1920,1917,1917,1923,1929,1941,1955,1966,1980,1988,1993,2002,2009,2024,2037,2058,2080,2076,2079,2089,2088,2092,2096,2099,2103,2096,2092,2094,2092,2087,2087,2079,2072,2068,2052,2026,2016,2013,2006,1997,1988,1976,1963,1944,1936,1920,1917,1909,1912,1911,1910,1912,1912,1907,1908,1907,1909,1918,1921,1910,1906,1905,1913,1912,1908,1898,1906,1912,1916,1911,1901,1909,1914,1913,1912,1910,1914,1919,1915,1918,1915,1914,1918,1913,1912,1900,1883,1868,1844,1846,1889,1965,2044,2129,2210,2297,2390,2476,2545,2627,2717,2800,2886,2978,3054,3136,3219,3301,3337,3291,3193,3104,3018,2923,2818,2722,2638,2539,2432,2336,2245,2155,2060,1952,1870,1775,1726,1724,1742,1778,1813,1836,1858,1882,1890,1892,1894,1899,1899,1897,1896,1903,1908,1903,1898,1899,1900,1901,1901,1902,1904,1905,1900,1901,1895,1897,1906,1910,1910,1904,1898,1903,1902,1909,1915,1900,1904,1912,1897,1906,1910,1920,1930,1952,1966,1969,1990,1993,2003,2014,2030,2044,2056,2064,2074,2081,2102,2117,2135,2144,2172,2195,2205,2214,2226,2240,2252,2266,2275,2281,2283,2287,2291,2290,2295,2304,2309,2315,2318,2313,2312,2317,2320,2326,2325,2323,2321,2316,2314,2310,2299,2302,2309,2302,2300,2295,2286,2284,2272,2269,2266,2249,2234,2224,2205,2185,2173,2155,2147,2120,2106,2100,2084,2072,2052,2040,2032,2028,2011,1996,1985,1974,1958,1940,1929,1920,1902,1885,1892,1902,1901,1904,1905,1906,1902,1903,1909,1906,1907,1900,1899,1903,1907,1907,1907,1901,1904,1907,1903,1901,1904,1908,1909,1906,1901,1903,1905,1908,1908,1906,1906,1909,1906,1905,1905,1904,1907,1909,1907,1907,1904,1905,1906,1903,1904,1910,1909,1909,1912,1907,1906,1907,1905,1905,1908,1907,1909,1906,1906,1904,1903,1906,1912,1908,1908,1906,1904,1908,1909,1906,1906,1909,1914,1912,1904,1902,1905,1906,1910,1909,1907,1913,1907,1904,1903,1901,1908,1911,1908,1908,1906,1907,1906,1905,1906,1911,1912,1912,1908,1906,1902,1903,1905,1910,1907,1904,1913,1910,1905,1907,1902,1906,1910,1907,1912,1905,1905,1906,1906,1906,1906,1909,1910,1910,1902,1904,1903,1904,1907,1906,1908,1910,1907,1906,1907,1904,1905,1909,1907,1911,1907,1905,1902,1904,1905,1906,1910,1910,1910,1906,1904,1905,1906,1908,1908,1908,1910,1908,1906,1908,1906,1910,1912,1911,1911,1908,1905,1906,1905,1903,1910,1908,1912,1912,1922,1931,1942,1960,1972,1983,1988,2001,2009,2018,2036,2053,2060,2066,2076,2083,2076,2074,2084,2085,2086,2085,2086,2084,2080,2075,2066,2059,2056,2048,2029,2008,2004,1995,1987,1976,1959,1953,1938,1927,1916,1904,1898,1892,1894,1894,1895,1903,1899,1899,1893,1891,1894,1899,1902,1896,1891,1896,1896,1893,1885,1878,1890,1900,1902,1895,1886,1892,1892,1892,1889,1894,1905,1909,1905,1900,1896,1895,1903,1896,1898,1886,1867,1847,1824,1834,1896,1976,2069,2154,2238,2317,2414,2491,2563,2650,2735,2821,2923,3011,3080,3148,3241,3320,3315,3222,3135,3043,2944,2850,2752,2658,2561,2465,2370,2275,2184,2088,1980,1874,1789,1724,1714,1728,1760,1782,1810,1832,1860,1878,1881,1884,1888,1885,1882,1885,1886,1889,1894,1887,1890,1888,1884,1885,1880,1885,1892,1891,1889,1888,1885,1886,1889,1895,1896,1891,1889,1892,1892,1897,1892,1883,1890,1898,1891,1900,1903,1910,1925,1942,1952,1966,1982,1986,1995,2006,2023,2038,2043,2052,2069,2079,2096,2112,2124,2138,2164,2183,2198,2212,2231,2232,2238,2253,2262,2270,2280,2278,2286,2285,2286,2290,2296,2302,2308,2304,2304,2314,2317,2317,2312,2305,2306,2308,2305,2296,2291,2295,2294,2287,2285,2280,2280,2271,2266,2263,2244,2224,2216,2208,2188,2167,2157,2138,2119,2104,2089,2078,2070,2060,2044,2028,2017,2006,1994,1981,1974,1958,1945,1932,1915,1900,1882,1878,1892,1900,1900,1902,1898,1898,1898,1893,1902,1899,1900,1901,1903,1900,1898,1896,1899,1899,1902,1905,1902,1895,1900,1898,1902,1900,1895,1900,1901,1900,1900,1902,1900,1906,1906,1906,1906,1900,1903,1904,1898,1903,1905,1904,1905,1907,1902,1901,1898,1903,1906,1902,1904,1903,1905,1905,1902,1902,1905,1906,1906,1904,1902,1905,1907,1903,1901,1908,1909,1913,1905,1902,1906,1906,1906,1908,1907,1910,1911,1908,1906,1906,1904,1908,1911,1908,1911,1907,1906,1910,1907,1909,1907,1911,1912,1912,1906,1906,1910,1912,1913,1912,1912,1919,1915,1914,1912,1911,1917,1917,1914,1920,1914,1913,1916,1914,1914,1920,1923,1920,1919,1915,1916,1915,1917,1919,1920,1920,1919,1916,1918,1918,1918,1921,1926,1922,1922,1916,1918,1916,1918,1914,1918,1922,1925,1924,1918,1920,1920,1919,1922,1922,1925,1924,1919,1920,1920,1917,1925,1926,1928,1925,1922,1920,1922,1922,1924,1926,1924,1928,1928,1920,1924,1922,1923,1931,1936,1946,1954,1963,1981,1991,1997,2009,2020,2031,2038,2066,2076,2077,2080,2092,2100,2100,2104,2106,2101,2098,2100,2102,2098,2096,2097,2084,2075,2067,2055,2028,2022,2020,2014,2003,1991,1976,1967,1945,1939,1928,1921,1919,1917,1917,1914,1914,1916,1915,1915,1915,1918,1919,1920,1914,1910,1913,1918,1915,1904,1900,1907,1915,1916,1915,1908,1912,1916,1915,1908,1910,1913,1921,1918,1921,1920,1919,1919,1913,1912,1908,1896,1872,1856,1850,1887,1966,2054,2137,2219,2302,2390,2481,2552,2631,2716,2794,2886,2989,3066,3136,3220,3302,3339,3285,3198,3115,3016,2919,2828,2734,2633,2536,2440,2349,2251,2161,2065,1959,1870,1782,1731,1734,1755,1787,1816,1836,1860,1883,1893,1896,1903,1908,1903,1900,1902,1902,1909,1906,1900,1907,1908,1907,1905,1899,1906,1905,1906,1908,1901,1908,1909,1910,1910,1910,1904,1906,1909,1918,1920,1904,1904,1914,1903,1911,1915,1927,1935,1954,1965,1973,1991,1997,2010,2022,2038,2057,2061,2066,2080,2089,2110,2128,2144,2157,2175,2198,2209,2218,2235,2250,2258,2274,2281,2280,2292,2298,2298,2302,2305,2311,2316,2320,2321,2323,2322,2328,2335,2336,2333,2330,2322,2322,2320,2315,2314,2313,2317,2312,2304,2296,2293,2290,2286,2284,2278,2263,2241,2228,2214,2197,2183,2171,2153,2132,2118,2109,2099,2082,2065,2056,2044,2038,2019,2001,1996,1984,1968,1954,1941,1927,1912,1893,1901,1908,1911,1916,1916,1916,1915,1911,1911,1915,1914,1912,1916,1917,1918,1915,1910,1911,1912,1915,1917,1916,1915,1918,1914,1914,1913,1914,1916,1920,1919,1918,1916,1914,1913,1914,1913,1918,1918,1918,1918,1915,1914,1914,1917,1916,1915,1918,1919,1920,1917,1916,1914,1918,1918,1920,1921,1915,1917,1918,1918,1915,1919,1922,1921,1920,1916,1918,1917,1918,1921,1920,1918,1922,1919,1918,1919,1917,1918,1922,1924,1918,1918,1919,1920,1920,1919,1918,1919,1922,1924,1917,1920,1920,1918,1924,1918,1922,1925,1924,1919,1921,1920,1924,1924,1923,1923,1921,1921,1926,1919,1917,1920,1925,1928,1923,1917,1918,1922,1923,1922,1920,1924,1924,1923,1922,1918,1917,1923,1923,1924,1924,1920,1915,1922,1918,1916,1922,1919,1925,1921,1917,1920,1916,1919,1921,1922,1921,1924,1926,1920,1915,1919,1921,1923,1924,1920,1922,1921,1923,1925,1926,1921,1926,1928,1926,1922,1923,1920,1922,1927,1926,1926,1924,1927,1927,1935,1945,1957,1978,1988,1996,1999,2009,2021,2032,2051,2070,2076,2086,2090,2092,2092,2088,2098,2105,2100,2100,2100,2094,2094,2089,2078,2072,2070,2060,2043,2022,2010,2010,2001,1991,1981,1964,1958,1943,1925,1920,1908,1907,1912,1912,1912,1916,1912,1911,1909,1905,1907,1916,1920,1912,1902,1906,1911,1902,1895,1898,1905,1914,1916,1901,1900,1902,1905,1908,1905,1907,1914,1916,1909,1908,1904,1908,1914,1904,1912,1895,1876,1852,1833,1839,1903,1984,2074,2162,2236,2318,2411,2495,2570,2655,2742,2828,2924,3008,3078,3149,3249,3326,3324,3240,3143,3050,2956,2858,2764,2679,2577,2478,2384,2290,2192,2099,1989,1891,1815,1740,1721,1730,1758,1787,1811,1837,1862,1883,1887,1887,1890,1891,1888,1886,1890,1899,1901,1894,1887,1891,1890,1894,1896,1894,1898,1894,1889,1889,1886,1889,1896,1901,1903,1899,1888,1889,1900,1899,1900,1891,1896,1904,1894,1900,1903,1908,1927,1950,1961,1969,1984,1985,1996,2007,2025,2043,2051,2059,2071,2081,2094,2112,2128,2140,2170,2187,2198,2211,2226,2230,2240,2256,2264,2270,2282,2284,2283,2282,2287,2294,2297,2306,2311,2306,2302,2311,2317,2318,2317,2315,2309,2314,2304,2290,2291,2291,2297,2290,2289,2285,2277,2268,2264,2262,2248,2233,2222,2210,2190,2171,2156,2140,2126,2107,2094,2085,2076,2058,2040,2030,2018,2008,1999,1987,1978,1965,1943,1931,1918,1900,1888,1885,1897,1898,1894,1895,1900,1896,1899,1901,1902,1905,1902,1898,1901,1897,1899,1902,1900,1904,1904,1902,1900,1898,1899,1904,1903,1905,1904,1900,1901,1902,1899,1900,1899,1901,1905,1902,1898,1898,1900,1902,1903,1902,1907,1904,1907,1902,1898,1901,1904,1904,1909,1905,1904,1902,1903,1902,1903,1903,1905,1911,1905,1900,1905,1902,1905,1907,1903,1908,1905,1906,1907,1901,1903,1908,1906,1909,1905,1904,1904,1905,1905,1904,1908,1912,1914,1912,1906,1907,1903,1906,1908,1909,1912,1910,1907,1910,1903,1903,1911,1911,1913,1912,1911,1909,1909,1908,1908,1907,1912,1912,1909,1904,1908,1908,1910,1915,1911,1914,1911,1911,1910,1908,1908,1914,1914,1917,1914,1913,1912,1911,1911,1916,1914,1914,1917,1913,1911,1912,1914,1914,1915,1914,1922,1918,1912,1913,1910,1914,1914,1917,1918,1915,1914,1913,1918,1916,1917,1916,1914,1921,1916,1913,1914,1912,1915,1920,1914,1918,1919,1917,1920,1911,1915,1920,1921,1926,1930,1937,1950,1959,1974,1984,1996,2006,2015,2021,2027,2052,2069,2068,2074,2086,2093,2094,2090,2094,2096,2089,2096,2097,2091,2089,2084,2074,2067,2059,2049,2030,2016,2014,2005,1992,1981,1965,1959,1942,1928,1923,1912,1908,1909,1908,1906,1916,1912,1914,1911,1906,1906,1910,1912,1911,1910,1908,1910,1911,1897,1898,1902,1912,1918,1914,1909,1909,1912,1906,1908,1908,1918,1924,1926,1920,1919,1914,1918,1914,1913,1914,1898,1880,1855,1845,1876,1948,2039,2131,2209,2288,2375,2465,2540,2619,2703,2786,2876,2982,3053,3123,3193,3292,3337,3305,3213,3121,3033,2933,2836,2746,2648,2550,2460,2357,2266,2176,2078,1972,1875,1790,1733,1736,1752,1782,1810,1835,1858,1884,1900,1906,1901,1910,1907,1896,1904,1903,1915,1914,1904,1912,1911,1906,1907,1901,1911,1913,1908,1912,1906,1905,1910,1915,1915,1915,1912,1909,1910,1917,1916,1908,1908,1919,1914,1916,1928,1928,1935,1957,1966,1978,2002,2004,2016,2024,2040,2057,2065,2074,2084,2099,2114,2132,2144,2156,2175,2201,2216,2227,2242,2256,2261,2274,2284,2289,2296,2307,2305,2310,2310,2317,2321,2326,2328,2328,2325,2334,2342,2339,2334,2336,2332,2328,2331,2320,2316,2316,2317,2316,2309,2304,2304,2299,2294,2290,2284,2264,2247,2236,2225,2207,2193,2180,2164,2139,2124,2109,2101,2094,2074,2061,2056,2040,2027,2010,2002,1996,1981,1964,1949,1930,1917,1902,1905,1917,1923,1922,1926,1926,1918,1920,1920,1922,1924,1922,1924,1926,1920,1922,1916,1919,1927,1928,1926,1922,1918,1922,1922,1919,1923,1921,1924,1926,1923,1917,1917,1921,1924,1930,1923,1925,1923,1922,1928,1918,1922,1923,1926,1928,1923,1922,1925,1923,1919,1921,1924,1923,1926,1923,1922,1925,1921,1926,1932,1925,1927,1927,1924,1926,1921,1925,1926,1930,1933,1927,1924,1924,1923,1928,1928,1928,1927,1933,1928,1925,1923,1926,1931,1933,1925,1932,1930,1927,1930,1926,1927,1931,1932,1932,1929,1928,1926,1932,1928,1926,1930,1931,1935,1932,1925,1925,1928,1930,1936,1930,1932,1934,1930,1929,1924,1927,1934,1930,1934,1931,1928,1935,1930,1931,1932,1932,1933,1936,1932,1926,1929,1932,1937,1932,1931,1934,1932,1929,1931,1929,1932,1932,1935,1937,1932,1929,1932,1934,1931,1934,1934,1932,1940,1934,1931,1934,1933,1936,1936,1932,1938,1939,1934,1932,1927,1931,1936,1938,1940,1935,1932,1934,1936,1934,1939,1954,1965,1974,1990,1995,2004,2011,2022,2034,2041,2070,2086,2086,2087,2099,2106,2113,2110,2112,2113,2114,2112,2112,2110,2105,2109,2100,2094,2080,2068,2055,2033,2026,2029,2016,2011,1999,1980,1969,1950,1941,1936,1930,1926,1922,1921,1924,1925,1918,1922,1922,1920,1924,1922,1922,1920,1912,1918,1927,1920,1913,1910,1915,1921,1926,1920,1918,1922,1925,1918,1919,1917,1925,1930,1928,1929,1923,1927,1928,1918,1922,1912,1891,1876,1850,1858,1918,1989,2078,2158,2249,2335,2423,2501,2579,2662,2749,2828,2925,3018,3097,3168,3257,3331,3333,3253,3166,3082,2986,2886,2790,2704,2603,2510,2404,2312,2225,2129,2031,1925,1837,1763,1734,1743,1768,1804,1831,1857,1875,1889,1900,1900,1904,1908,1904,1904,1910,1911,1917,1904,1904,1913,1909,1910,1904,1906,1912,1912,1909,1907,1903,1912,1915,1914,1910,1910,1907,1911,1914,1914,1920,1910,1904,1916,1902,1915,1927,1932,1943,1960,1969,1979,1997,2000,2009,2023,2041,2057,2060,2065,2083,2095,2112,2132,2142,2157,2185,2202,2207,2218,2246,2254,2261,2275,2282,2283,2296,2295,2301,2300,2304,2314,2317,2320,2318,2319,2316,2326,2333,2326,2330,2328,2319,2319,2312,2308,2305,2309,2311,2304,2294,2291,2285,2281,2278,2275,2265,2248,2232,2215,2200,2181,2169,2159,2142,2124,2108,2095,2080,2064,2053,2049,2035,2024,2006,1995,1983,1975,1961,1940,1933,1921,1902,1888,1894,1906,1903,1906,1908,1908,1908,1908,1903,1910,1904,1908,1910,1909,1914,1911,1905,1905,1906,1906,1903,1908,1909,1910,1909,1903,1904,1904,1906,1910,1906,1911,1907,1906,1908,1904,1908,1908,1909,1912,1908,1907,1906,1907,1907,1908,1908,1911,1912,1910,1906,1904,1906,1913,1912,1909,1915,1910,1907,1909,1904,1906,1909,1909,1915,1910,1907,1910,1907,1910,1911,1912,1915,1917,1914,1905,1914,1908,1908,1912,1909,1911,1911,1910,1913,1904,1909,1911,1913,1914,1913,1910,1909,1908,1912,1912,1909,1919,1914,1913,1905,1908,1908,1916,1912,1912,1914,1914,1909,1911,1908,1912,1916,1916,1921,1915,1912,1912,1912,1914,1914,1919,1919,1916,1910,1910,1908,1912,1916,1920,1914,1916,1916,1915,1914,1910,1915,1920,1917,1920,1918,1913,1914,1913,1915,1917,1916,1921,1920,1918,1916,1916,1916,1915,1920,1917,1919,1921,1919,1918,1915,1915,1919,1920,1922,1918,1914,1917,1919,1919,1918,1920,1921,1923,1916,1919,1926,1939,1951,1959,1977,1988,1995,2001,2010,2015,2028,2057,2072,2078,2080,2084,2090,2092,2092,2095,2101,2101,2100,2096,2092,2090,2087,2076,2070,2065,2058,2035,2017,2012,1996,1993,1990,1973,1967,1946,1929,1919,1912,1911,1906,1908,1909,1912,1910,1908,1907,1903,1908,1910,1914,1916,1906,1903,1906,1905,1901,1900,1902,1911,1912,1907,1905,1902,1907,1908,1907,1912,1914,1918,1917,1912,1913,1910,1914,1915,1916,1913,1890,1874,1850,1844,1869,1937,2016,2103,2182,2272,2356,2443,2524,2599,2684,2772,2856,2945,3030,3110,3187,3280,3338,3319,3220,3130,3045,2941,2844,2751,2665,2568,2460,2363,2272,2180,2092,1982,1882,1800,1736,1727,1735,1770,1805,1829,1852,1876,1894,1896,1892,1900,1893,1894,1899,1903,1912,1908,1899,1903,1903,1903,1902,1903,1909,1910,1904,1899,1897,1901,1907,1907,1910,1910,1903,1904,1906,1908,1912,1910,1904,1913,1903,1902,1916,1920,1927,1946,1965,1975,1992,1995,1998,2012,2029,2046,2058,2060,2079,2089,2100,2116,2128,2145,2173,2195,2206,2212,2225,2243,2249,2264,2275,2278,2290,2297,2297,2294,2298,2306,2314,2316,2322,2326,2323,2322,2328,2324,2328,2335,2331,2324,2322,2319,2315,2310,2316,2314,2308,2309,2301,2296,2285,2280,2278,2266,2244,2234,2227,2205,2185,2174,2150,2136,2126,2113,2105,2087,2071,2059,2048,2039,2021,2013,2002,1995,1981,1954,1946,1939,1918,1904,1903,1917,1924,1920,1921,1916,1920,1923,1924,1927,1920,1918,1919,1916,1919,1920,1922,1926,1927,1920,1918,1919,1918,1922,1926,1924,1924,1925,1925,1924,1918,1918,1924,1923,1928,1922,1924,1922,1921,1924,1925,1926,1927,1927,1925,1922,1920,1925,1927,1928,1923,1925,1924,1924,1928,1920,1922,1930,1931,1932,1928,1926,1928,1927,1928,1928,1928,1934,1931,1927,1927,1927,1926,1930,1931,1931,1931,1930,1927,1928,1922,1929,1933,1932,1936,1930,1925,1930,1927,1931,1935,1933,1935,1937,1932,1930,1927,1928,1932,1936,1931,1935,1935,1930,1931,1928,1930,1934,1935,1940,1932,1930,1930,1934,1932,1933,1934,1941,1935,1931,1932,1929,1931,1932,1936,1936,1936,1935,1935,1935,1930,1935,1937,1941,1938,1932,1931,1934,1936,1935,1936,1934,1939,1934,1939,1933,1932,1937,1938,1934,1936,1937,1934,1937,1935,1933,1932,1938,1939,1940,1935,1934,1936,1933,1936,1934,1938,1941,1938,1938,1936,1938,1936,1935,1939,1936,1945,1955,1961,1972,1989,2000,2012,2018,2025,2032,2046,2070,2083,2094,2090,2106,2114,2114,2111,2111,2113,2116,2121,2120,2114,2113,2108,2101,2092,2080,2076,2071,2049,2038,2030,2018,2014,2002,1983,1973,1961,1950,1940,1931,1923,1923,1927,1931,1935,1928,1929,1926,1926,1924,1926,1928,1930,1930,1931,1929,1924,1921,1912,1920,1927,1932,1928,1924,1927,1924,1923,1927,1928,1941,1938,1938,1938,1933,1931,1930,1924,1934,1924,1904,1878,1862,1863,1916,1994,2085,2169,2256,2336,2432,2507,2582,2670,2753,2836,2933,3022,3098,3160,3259,3334,3348,3276,3188,3096,2996,2900,2809,2715,2615,2517,2426,2336,2236,2141,2032,1926,1858,1773,1747,1752,1775,1806,1835,1861,1879,1901,1913,1913,1916,1912,1910,1914,1914,1921,1924,1921,1920,1922,1916,1910,1909,1915,1922,1924,1916,1916,1914,1918,1921,1918,1921,1928,1919,1922,1919,1922,1928,1917,1920,1928,1920,1931,1936,1938,1943,1967,1980,1991,2012,2010,2024,2035,2049,2064,2066,2077,2096,2106,2125,2135,2145,2164,2192,2212,2219,2235,2254,2260,2265,2274,2288,2294,2304,2308,2306,2314,2318,2320,2325,2325,2334,2334,2335,2344,2342,2338,2340,2334,2336,2332,2332,2328,2318,2320,2320,2314,2310,2309,2306,2295,2289,2291,2280,2260,2242,2234,2221,2200,2189,2173,2149,2134,2118,2108,2098,2088,2076,2064,2053,2039,2022,2014,2002,1992,1974,1959,1950,1936,1915,1894,1907,1924,1923,1926,1921,1920,1918,1919,1917,1919,1924,1923,1924,1924,1921,1923,1926,1925,1925,1924,1925,1923,1923,1926,1916,1923,1926,1926,1930,1923,1921,1926,1920,1920,1922,1924,1926,1928,1925,1920,1922,1922,1926,1926,1921,1925,1926,1922,1926,1920,1921,1927,1927,1929,1924,1920,1924,1923,1923,1927,1928,1933,1929,1926,1922,1921,1924,1926,1930,1926,1928,1922,1926,1925,1922,1923,1930,1929,1931,1923,1922,1924,1924,1924,1922,1927,1931,1927,1926,1922,1919,1922,1922,1927,1923,1928,1927,1927,1924,1922,1922,1926,1923,1927,1922,1920,1922,1922,1922,1920,1924,1926,1927,1925,1920,1918,1925,1926,1923,1923,1924,1927,1924,1921,1919,1925,1927,1928,1926,1921,1920,1923,1923,1926,1927,1924,1928,1926,1924,1922,1919,1921,1924,1926,1922,1928,1925,1922,1924,1921,1923,1927,1924,1930,1925,1922,1926,1923,1922,1922,1925,1927,1927,1925,1924,1921,1924,1928,1929,1925,1924,1923,1923,1924,1920,1924,1933,1942,1956,1962,1976,1989,1993,2003,2016,2026,2040,2058,2079,2073,2080,2091,2097,2099,2100,2103,2111,2102,2104,2096,2094,2100,2094,2088,2074,2067,2060,2036,2024,2017,2009,2001,1992,1978,1962,1948,1939,1924,1920,1913,1911,1909,1911,1911,1904,1908,1912,1909,1911,1908,1914,1912,1906,1904,1908,1910,1910,1901,1900,1903,1905,1914,1906,1904,1909,1912,1905,1906,1914,1909,1915,1918,1916,1917,1912,1914,1909,1914,1895,1876,1856,1845,1856,1923,1999,2089,2178,2265,2346,2431,2506,2588,2676,2757,2838,2942,3029,3104,3178,3265,3336,3322,3226,3141,3054,2956,2858,2764,2670,2569,2465,2371,2278,2190,2096,1988,1888,1804,1735,1721,1737,1772,1806,1835,1848,1877,1890,1894,1897,1897,1899,1899,1898,1900,1903,1901,1901,1902,1904,1900,1898,1901,1908,1906,1898,1901,1902,1899,1906,1902,1903,1910,1901,1900,1903,1911,1919,1907,1901,1906,1904,1906,1917,1922,1928,1947,1959,1971,1987,1993,2000,2015,2031,2048,2056,2057,2068,2080,2095,2113,2130,2146,2159,2185,2198,2211,2220,2242,2252,2258,2274,2277,2283,2290,2288,2291,2301,2304,2312,2308,2313,2322,2315,2317,2325,2328,2331,2326,2324,2317,2313,2315,2309,2306,2306,2305,2304,2295,2291,2282,2277,2280,2275,2262,2242,2227,2214,2195,2183,2166,2152,2139,2123,2106,2088,2076,2064,2056,2045,2034,2022,2008,1993,1982,1967,1955,1944,1930,1914,1896,1894,1905,1908,1912,1909,1907,1916,1915,1909,1906,1907,1912,1913,1916,1914,1909,1914,1914,1915,1910,1911,1915,1917,1920,1912,1911,1915,1913,1914,1913,1914,1918,1916,1912,1911,1909,1910,1914,1918,1914,1917,1916,1915,1911,1911,1914,1916,1914,1919,1914,1912,1917,1914,1912,1916,1915,1917,1921,1917,1911,1913,1914,1916,1920,1915,1916,1920,1920,1918,1913,1917,1920,1922,1924,1920,1918,1919,1916,1919,1921,1920,1930,1925,1922,1917,1917,1922,1926,1931,1927,1925,1926,1926,1926,1924,1925,1929,1927,1931,1926,1923,1926,1928,1930,1930,1928,1933,1932,1929,1928,1927,1929,1935,1936,1930,1933,1931,1929,1933,1928,1930,1932,1932,1936,1932,1928,1932,1928,1931,1931,1932,1934,1936,1935,1933,1928,1933,1934,1937,1932,1936,1936,1933,1936,1932,1931,1938,1935,1941,1934,1933,1938,1934,1935,1936,1937,1941,1941,1936,1935,1933,1936,1938,1941,1938,1938,1940,1940,1940,1936,1935,1943,1940,1942,1936,1937,1943,1948,1964,1971,1986,2005,2008,2013,2018,2025,2046,2068,2082,2092,2092,2100,2112,2112,2106,2112,2123,2125,2122,2114,2110,2112,2110,2106,2096,2087,2086,2074,2048,2027,2027,2025,2020,2008,1988,1979,1965,1952,1942,1931,1926,1934,1933,1938,1936,1926,1932,1927,1931,1928,1931,1939,1934,1928,1929,1926,1931,1921,1922,1923,1933,1938,1930,1925,1925,1930,1931,1934,1932,1938,1940,1938,1934,1935,1934,1936,1935,1934,1928,1905,1883,1864,1867,1920,1990,2077,2166,2248,2325,2410,2497,2582,2662,2752,2826,2916,3016,3091,3165,3245,3329,3358,3291,3200,3109,3017,2926,2822,2732,2641,2548,2439,2346,2257,2159,2062,1961,1881,1794,1747,1748,1772,1800,1832,1854,1881,1907,1918,1913,1913,1914,1916,1918,1920,1920,1931,1927,1918,1924,1916,1918,1920,1919,1930,1924,1916,1920,1913,1918,1922,1925,1930,1932,1922,1920,1916,1928,1939,1930,1923,1933,1920,1930,1932,1938,1946,1971,1985,1998,2013,2012,2027,2036,2053,2070,2076,2088,2103,2112,2122,2138,2158,2171,2196,2214,2225,2238,2252,2267,2268,2286,2296,2304,2314,2311,2310,2315,2321,2329,2330,2334,2341,2341,2336,2337,2341,2343,2348,2349,2339,2336,2338,2330,2324,2319,2323,2324,2321,2321,2310,2303,2298,2290,2287,2270,2252,2250,2230,2206,2190,2174,2165,2146,2130,2116,2108,2095,2077,2066,2049,2040,2034,2022,2013,2001,1981,1963,1951,1944,1920,1909,1922,1932,1926,1925,1926,1928,1933,1933,1929,1930,1929,1929,1931,1924,1924,1931,1932,1936,1933,1929,1930,1928,1927,1930,1929,1933,1933,1930,1928,1926,1930,1931,1934,1931,1935,1931,1931,1933,1929,1928,1936,1936,1936,1930,1928,1930,1929,1932,1932,1932,1938,1936,1932,1927,1927,1934,1932,1938,1931,1938,1932,1932,1932,1928,1930,1936,1934,1938,1934,1928,1932,1931,1935,1935,1937,1938,1936,1934,1930,1932,1934,1936,1936,1934,1936,1936,1930,1935,1929,1930,1937,1936,1938,1933,1932,1937,1933,1934,1935,1935,1935,1936,1934,1931,1932,1935,1934,1938,1935,1939,1936,1932,1936,1929,1933,1934,1938,1936,1936,1932,1935,1933,1933,1936,1935,1941,1937,1935,1930,1932,1932,1935,1936,1934,1934,1936,1934,1933,1932,1932,1937,1935,1939,1936,1936,1934,1934,1936,1934,1936,1936,1938,1940,1934,1933,1935,1936,1939,1935,1939,1938,1936,1937,1934,1931,1941,1942,1942,1936,1934,1937,1934,1939,1938,1934,1940,1944,1953,1961,1973,1988,2004,2010,2014,2024,2035,2044,2070,2086,2086,2095,2104,2115,2110,2105,2114,2114,2114,2116,2113,2111,2110,2104,2094,2081,2080,2074,2059,2036,2032,2022,2011,2006,1987,1979,1969,1954,1943,1932,1917,1920,1922,1919,1924,1925,1928,1926,1919,1915,1916,1926,1928,1921,1916,1919,1923,1916,1911,1906,1915,1929,1926,1918,1909,1910,1916,1918,1917,1917,1925,1930,1926,1922,1916,1918,1925,1917,1919,1907,1887,1866,1846,1864,1923,2005,2095,2181,2268,2343,2437,2512,2591,2679,2762,2846,2952,3037,3106,3177,3269,3344,3333,3245,3153,3066,2964,2868,2770,2673,2577,2481,2392,2293,2198,2105,2000,1896,1814,1747,1731,1746,1775,1809,1831,1852,1880,1898,1904,1904,1910,1906,1898,1901,1898,1908,1910,1906,1911,1905,1900,1903,1900,1908,1909,1908,1906,1905,1906,1904,1907,1907,1915,1908,1905,1909,1916,1916,1914,1902,1910,1915,1913,1922,1922,1926,1947,1959,1976,1985,2001,2005,2017,2028,2041,2055,2058,2070,2089,2099,2112,2132,2142,2158,2181,2200,2214,2226,2244,2249,2255,2273,2276,2286,2292,2293,2299,2301,2305,2307,2306,2315,2322,2321,2316,2330,2329,2326,2330,2324,2316,2322,2323,2315,2306,2306,2306,2303,2300,2294,2289,2285,2286,2280,2255,2237,2229,2221,2205,2185,2170,2160,2136,2124,2105,2094,2087,2070,2062,2048,2033,2021,2008,1995,1991,1977,1962,1948,1934,1910,1898,1894,1906,1915,1913,1917,1914,1915,1914,1912,1915,1921,1917,1920,1915,1914,1918,1915,1916,1914,1920,1920,1920,1916,1914,1913,1916,1916,1921,1918,1920,1918,1918,1918,1914,1919,1923,1920,1926,1920,1916,1918,1920,1920,1922,1921,1921,1923,1921,1918,1917,1916,1917,1923,1923,1922,1921,1921,1924,1915,1918,1924,1925,1926,1922,1920,1921,1918,1922,1920,1921,1926,1926,1921,1920,1920,1921,1922,1924,1918,1923,1924,1922,1924,1916,1920,1925,1922,1929,1923,1917,1921,1922,1922,1922,1923,1926,1928,1923,1920,1922,1922,1926,1928,1922,1927,1926,1926,1925,1918,1925,1926,1926,1927,1926,1922,1925,1921,1925,1924,1926,1926,1930,1925,1918,1920,1923,1930,1930,1926,1932,1928,1926,1928,1921,1924,1931,1929,1932,1929,1926,1926,1928,1927,1930,1935,1932,1934,1929,1926,1925,1924,1931,1931,1929,1934,1933,1931,1930,1926,1926,1934,1936,1933,1930,1928,1932,1930,1932,1930,1931,1934,1933,1931,1931,1928,1926,1934,1943,1954,1965,1977,1993,2000,2004,2011,2024,2039,2051,2068,2084,2083,2091,2104,2107,2105,2106,2114,2112,2108,2104,2105,2106,2105,2094,2095,2084,2076,2067,2034,2027,2028,2019,2014,1999,1979,1970,1952,1944,1934,1929,1924,1924,1925,1917,1922,1925,1930,1928,1926,1925,1926,1930,1925,1917,1923,1928,1930,1924,1914,1919,1927,1927,1927,1923,1928,1930,1927,1926,1926,1930,1934,1936,1938,1933,1931,1932,1930,1932,1919,1901,1889,1867,1869,1910,1978,2060,2154,2237,2318,2406,2492,2569,2653,2730,2818,2903,3005,3089,3153,3235,3318,3354,3304,3205,3120,3040,2930,2837,2746,2656,2545,2455,2358,2270,2172,2088,1968,1890,1792,1744,1746,1768,1806,1835,1856,1879,1902,1915,1909,1913,1924,1919,1918,1919,1922,1930,1928,1924,1922,1918,1920,1923,1920,1925,1924,1920,1924,1924,1921,1928,1929,1928,1932,1919,1923,1924,1933,1938,1926,1923,1931,1923,1934,1939,1946,1954,1977,1986,1991,2011,2015,2028,2044,2056,2074,2079,2087,2103,2107,2123,2144,2161,2175,2196,2216,2228,2238,2259,2268,2275,2288,2299,2303,2307,2313,2316,2319,2325,2324,2332,2339,2339,2340,2336,2342,2351,2353,2358,2349,2342,2340,2340,2336,2330,2331,2333,2332,2327,2316,2314,2307,2305,2302,2294,2281,2260,2248,2236,2208,2196,2186,2172,2154,2140,2119,2110,2098,2084,2074,2066,2055,2041,2029,2012,2002,1986,1969,1963,1949,1930,1917,1921,1928,1927,1932,1936,1938,1938,1936,1931,1934,1932,1932,1937,1936,1937,1936,1935,1929,1932,1934,1933,1938,1936,1937,1934,1934,1935,1930,1930,1937,1939,1940,1935,1931,1933,1935,1934,1936,1937,1938,1938,1937,1931,1935,1934,1938,1940,1937,1942,1938,1937,1937,1934,1937,1939,1941,1941,1938,1935,1939,1936,1937,1936,1938,1940,1942,1937,1936,1937,1936,1938,1942,1940,1946,1943,1937,1942,1937,1938,1941,1943,1945,1941,1942,1939,1938,1942,1940,1944,1943,1948,1941,1940,1942,1940,1942,1945,1943,1946,1947,1943,1942,1942,1940,1947,1943,1944,1942,1937,1940,1940,1943,1941,1943,1947,1947,1947,1940,1944,1942,1944,1948,1943,1948,1943,1945,1943,1941,1943,1946,1948,1944,1946,1942,1945,1945,1944,1944,1945,1943,1946,1948,1942,1942,1939,1943,1946,1940,1946,1946,1944,1944,1938,1942,1950,1952,1952,1948,1944,1946,1945,1946,1945,1945,1947,1951,1946,1942,1944,1946,1951,1949,1946,1950,1944,1947,1950,1958,1971,1984,2003,2014,2018,2023,2034,2051,2058,2074,2096,2102,2104,2115,2121,2118,2120,2122,2129,2125,2126,2126,2118,2117,2110,2104,2102,2096,2088,2066,2048,2039,2035,2027,2015,2003,1992,1981,1965,1951,1943,1936,1935,1937,1934,1937,1940,1932,1929,1929,1931,1936,1942,1944,1932,1922,1927,1935,1929,1923,1924,1934,1943,1940,1930,1924,1931,1932,1931,1928,1932,1940,1943,1940,1939,1928,1936,1944,1940,1938,1924,1902,1882,1863,1868,1936,2011,2102,2183,2266,2352,2440,2521,2602,2688,2775,2855,2951,3040,3109,3181,3278,3354,3353,3260,3168,3082,2988,2886,2784,2702,2607,2503,2403,2309,2216,2122,2022,1924,1832,1764,1750,1758,1784,1818,1842,1867,1894,1912,1913,1914,1918,1917,1917,1918,1923,1926,1931,1920,1916,1920,1913,1917,1921,1919,1925,1924,1918,1915,1913,1918,1926,1930,1930,1923,1917,1919,1923,1932,1928,1922,1927,1934,1923,1927,1934,1940,1957,1976,1987,1998,2013,2014,2022,2035,2056,2073,2078,2088,2098,2106,2121,2140,2152,2166,2197,2214,2227,2237,2254,2260,2266,2284,2294,2298,2308,2307,2304,2308,2309,2316,2322,2332,2339,2328,2329,2333,2338,2337,2340,2337,2331,2336,2327,2318,2311,2316,2317,2319,2309,2307,2301,2292,2288,2281,2270,2252,2240,2232,2207,2188,2176,2163,2144,2128,2117,2107,2098,2082,2061,2055,2041,2033,2017,2008,2000,1983,1967,1951,1936,1920,1906,1905,1913,1919,1920,1917,1920,1919,1916,1921,1918,1926,1920,1918,1918,1918,1919,1921,1920,1921,1924,1922,1919,1916,1916,1919,1921,1925,1922,1916,1920,1922,1920,1916,1920,1919,1929,1922,1918,1917,1920,1925,1925,1923,1923,1920,1923,1920,1918,1918,1923,1924,1926,1925,1922,1921,1920,1919,1918,1920,1923,1924,1926,1918,1917,1918,1920,1926,1925,1926,1928,1924,1920,1920,1920,1924,1927,1926,1926,1924,1923,1923,1924,1922,1925,1927,1926,1926,1921,1922,1922,1927,1928,1924,1926,1928,1922,1923,1922,1919,1926,1926,1931,1927,1924,1924,1928,1925,1927,1926,1928,1932,1927,1924,1922,1924,1924,1929,1929,1930,1927,1925,1929,1927,1925,1930,1930,1930,1928,1931,1924,1926,1925,1927,1930,1929,1933,1932,1922,1922,1927,1930,1932,1930,1931,1930,1930,1932,1928,1926,1929,1933,1936,1932,1926,1928,1930,1932,1929,1932,1935,1938,1931,1930,1928,1928,1932,1931,1932,1933,1931,1928,1931,1931,1928,1931,1934,1941,1944,1952,1961,1970,1988,1999,2004,2016,2030,2036,2044,2068,2086,2086,2090,2103,2103,2106,2106,2110,2111,2107,2111,2106,2110,2106,2098,2092,2082,2075,2067,2048,2030,2029,2017,2005,1996,1981,1972,1961,1942,1937,1926,1919,1919,1920,1917,1925,1926,1925,1921,1919,1918,1923,1922,1919,1920,1920,1927,1923,1909,1908,1910,1922,1930,1925,1918,1919,1922,1918,1916,1918,1927,1934,1932,1933,1924,1921,1926,1923,1921,1923,1901,1883,1862,1853,1890,1961,2057,2143,2226,2309,2392,2470,2553,2630,2717,2801,2891,2993,3067,3139,3214,3309,3346,3306,3220,3127,3033,2936,2846,2742,2650,2556,2461,2359,2264,2173,2079,1967,1880,1790,1742,1745,1763,1794,1826,1842,1869,1893,1904,1910,1912,1920,1911,1904,1911,1915,1919,1921,1917,1917,1915,1912,1914,1910,1917,1924,1923,1918,1914,1912,1912,1921,1919,1919,1918,1914,1920,1927,1924,1915,1915,1926,1921,1925,1931,1936,1944,1960,1973,1984,2006,2008,2019,2034,2044,2063,2070,2074,2091,2104,2119,2141,2152,2161,2185,2208,2219,2234,2249,2262,2270,2281,2291,2294,2307,2312,2316,2319,2317,2323,2326,2332,2336,2338,2338,2339,2347,2350,2344,2342,2341,2338,2338,2333,2330,2327,2329,2327,2320,2316,2310,2312,2304,2300,2294,2277,2260,2245,2230,2214,2199,2188,2170,2149,2133,2122,2111,2104,2086,2076,2065,2052,2038,2023,2014,2004,1992,1971,1962,1949,1927,1916,1916,1931,1933,1935,1939,1932,1932,1930,1932,1930,1932,1930,1933,1937,1930,1933,1930,1933,1931,1935,1936,1938,1933,1934,1933,1932,1930,1934,1936,1940,1938,1931,1933,1935,1939,1937,1938,1939,1943,1940,1937,1935,1934,1940,1941,1942,1944,1938,1935,1937,1935,1938,1944,1942,1945,1938,1936,1935,1937,1942,1941,1941,1943,1943,1940,1940,1938,1940,1944,1946,1945,1945,1942,1940,1943,1938,1939,1944,1942,1947,1944,1939,1938,1939,1942,1943,1942,1947,1947,1944,1942,1940,1941,1947,1946,1944,1946,1942,1945,1948,1943,1943,1945,1944,1951,1946,1943,1940,1944,1945,1948,1944,1947,1950,1946,1946,1947,1941,1945,1950,1952,1951,1946,1948,1946,1944,1944,1949,1949,1953,1950,1944,1944,1945,1944,1949,1945,1945,1948,1947,1946,1945,1944,1946,1950,1949,1948,1946,1949,1947,1945,1944,1950,1951,1954,1948,1945,1947,1946,1950,1952,1948,1950,1946,1946,1943,1948,1943,1947,1952,1948,1946,1947,1951,1946,1946,1951,1964,1976,1986,2001,2013,2017,2026,2039,2051,2060,2078,2100,2105,2102,2116,2117,2122,2126,2123,2130,2128,2124,2125,2122,2119,2118,2114,2106,2096,2084,2072,2050,2043,2040,2032,2024,2010,1997,1983,1968,1955,1949,1944,1935,1941,1940,1938,1941,1936,1936,1936,1937,1938,1946,1942,1934,1933,1934,1939,1935,1929,1931,1935,1939,1945,1933,1933,1941,1940,1940,1934,1938,1942,1946,1944,1947,1939,1943,1948,1932,1940,1928,1906,1892,1870,1875,1938,2016,2100,2185,2268,2356,2447,2526,2600,2684,2772,2853,2949,3040,3118,3191,3282,3356,3353,3271,3183,3092,2996,2900,2808,2714,2613,2512,2421,2316,2230,2143,2033,1936,1848,1773,1754,1763,1790,1824,1850,1876,1900,1914,1921,1921,1926,1928,1921,1922,1930,1929,1934,1934,1926,1931,1934,1929,1930,1929,1932,1930,1927,1924,1925,1928,1936,1935,1932,1928,1926,1932,1938,1942,1939,1933,1932,1939,1928,1935,1942,1953,1962,1982,1993,2005,2024,2019,2030,2046,2066,2081,2084,2087,2105,2114,2128,2148,2163,2174,2207,2221,2229,2241,2262,2273,2284,2296,2307,2308,2319,2320,2319,2320,2328,2336,2338,2340,2342,2338,2341,2346,2356,2354,2352,2353,2342,2339,2340,2328,2325,2334,2331,2330,2320,2317,2308,2301,2300,2299,2284,2267,2255,2238,2220,2204,2192,2174,2160,2142,2132,2118,2105,2090,2071,2069,2060,2049,2035,2020,2007,1995,1976,1961,1953,1940,1920,1914,1919,1926,1930,1932,1932,1932,1929,1937,1932,1929,1931,1930,1932,1936,1932,1934,1928,1933,1934,1928,1929,1932,1934,1936,1934,1929,1930,1932,1934,1933,1935,1933,1936,1933,1932,1928,1931,1935,1938,1934,1936,1934,1935,1934,1932,1930,1934,1936,1939,1937,1932,1934,1933,1926,1931,1934,1932,1939,1934,1932,1931,1929,1933,1936,1935,1937,1929,1934,1934,1931,1930,1934,1938,1937,1935,1932,1927,1928,1931,1935,1935,1932,1940,1934,1928,1928,1924,1932,1935,1934,1936,1933,1930,1931,1930,1930,1931,1934,1937,1932,1929,1931,1930,1928,1933,1931,1930,1936,1933,1931,1930,1925,1937,1933,1934,1936,1933,1930,1934,1928,1930,1934,1932,1935,1934,1930,1929,1930,1932,1934,1932,1932,1936,1935,1930,1928,1926,1930,1935,1937,1935,1932,1932,1929,1928,1930,1935,1936,1941,1934,1933,1930,1934,1934,1937,1938,1934,1937,1936,1931,1930,1931,1933,1935,1935,1935,1932,1933,1932,1932,1931,1930,1937,1938,1936,1936,1938,1950,1962,1972,1990,1999,2010,2014,2024,2038,2040,2068,2090,2084,2092,2103,2107,2104,2106,2106,2115,2114,2116,2110,2103,2096,2097,2088,2084,2077,2070,2049,2032,2022,2014,2006,2001,1983,1976,1956,1946,1935,1926,1919,1917,1920,1924,1926,1926,1920,1916,1921,1916,1922,1928,1924,1923,1917,1922,1916,1909,1909,1914,1926,1929,1922,1917,1916,1917,1915,1916,1924,1925,1934,1930,1925,1927,1921,1923,1926,1921,1925,1908,1882,1858,1849,1882,1952,2034,2128,2214,2292,2372,2462,2537,2621,2707,2789,2874,2972,3052,3129,3200,3288,3349,3320,3237,3142,3048,2952,2852,2759,2674,2574,2473,2373,2279,2186,2094,1984,1891,1804,1745,1739,1749,1782,1817,1838,1858,1887,1902,1907,1902,1908,1906,1898,1904,1913,1919,1916,1910,1910,1910,1907,1907,1908,1919,1920,1914,1913,1909,1912,1914,1918,1916,1919,1917,1912,1915,1918,1921,1918,1916,1922,1918,1924,1924,1924,1940,1958,1974,1988,2004,2010,2013,2022,2042,2056,2067,2072,2081,2102,2110,2124,2139,2151,2174,2205,2216,2227,2238,2252,2259,2265,2281,2287,2297,2303,2304,2306,2304,2313,2316,2320,2329,2331,2332,2332,2332,2336,2334,2338,2337,2333,2332,2325,2316,2314,2318,2316,2311,2311,2308,2302,2289,2283,2287,2266,2250,2241,2230,2212,2191,2177,2159,2138,2131,2118,2104,2097,2078,2064,2054,2040,2024,2010,2008,2001,1987,1962,1950,1938,1918,1904,1911,1920,1926,1926,1922,1922,1920,1926,1928,1928,1929,1922,1921,1924,1922,1921,1923,1930,1930,1929,1926,1922,1929,1924,1926,1927,1926,1927,1926,1926,1921,1919,1925,1931,1928,1925,1926,1927,1927,1924,1923,1923,1928,1930,1931,1928,1926,1926,1925,1928,1930,1929,1931,1928,1928,1926,1926,1930,1933,1932,1931,1931,1932,1928,1929,1930,1930,1934,1936,1937,1931,1929,1935,1931,1934,1934,1936,1939,1936,1935,1932,1932,1936,1938,1938,1937,1936,1934,1936,1936,1936,1938,1943,1943,1944,1938,1937,1940,1938,1943,1939,1940,1946,1943,1943,1940,1936,1943,1945,1945,1942,1944,1940,1940,1940,1934,1941,1944,1944,1944,1942,1941,1942,1940,1943,1943,1942,1948,1947,1941,1942,1938,1942,1942,1946,1943,1945,1947,1944,1944,1939,1945,1950,1947,1950,1944,1944,1946,1944,1944,1945,1946,1951,1949,1947,1942,1942,1947,1949,1949,1952,1944,1947,1946,1946,1942,1944,1947,1950,1950,1946,1944,1946,1946,1946,1946,1952,1964,1974,1979,1994,2006,2018,2028,2040,2046,2055,2073,2088,2100,2104,2110,2124,2126,2123,2122,2128,2130,2126,2125,2125,2123,2126,2112,2104,2093,2088,2079,2060,2045,2044,2032,2026,2013,1997,1982,1970,1962,1951,1944,1933,1934,1941,1934,1942,1938,1935,1940,1937,1938,1941,1941,1939,1938,1941,1939,1936,1927,1925,1931,1932,1945,1944,1934,1939,1939,1935,1938,1934,1943,1947,1944,1951,1942,1940,1942,1936,1944,1936,1916,1894,1874,1876,1925,2004,2090,2177,2268,2346,2440,2521,2592,2673,2760,2842,2944,3032,3115,3177,3269,3346,3357,3293,3205,3109,3017,2925,2826,2726,2631,2530,2440,2341,2251,2164,2056,1949,1871,1788,1753,1761,1786,1818,1845,1863,1886,1908,1920,1924,1928,1936,1930,1925,1926,1930,1932,1932,1932,1932,1933,1926,1927,1929,1932,1934,1928,1932,1933,1930,1931,1931,1931,1937,1933,1940,1934,1943,1941,1931,1931,1937,1932,1943,1950,1954,1958,1975,1990,2003,2023,2022,2035,2054,2065,2079,2082,2090,2109,2122,2138,2151,2166,2183,2201,2226,2232,2241,2266,2274,2286,2294,2301,2313,2318,2320,2321,2322,2333,2339,2338,2337,2344,2346,2346,2355,2356,2354,2356,2352,2344,2344,2343,2340,2334,2337,2332,2326,2327,2319,2317,2311,2308,2310,2296,2274,2253,2248,2234,2216,2204,2186,2170,2152,2136,2124,2112,2097,2086,2078,2068,2056,2034,2024,2013,2010,1994,1976,1970,1951,1926,1915,1922,1823,1901,1937,1939,1939,1934,1936,1936,1932,1938,1943,1942,1942,1940,1935,1939,1937,1938,1941,1938,1940,1942,1940,1936,1934,1941,1939,1939,1942,1939,1941,1939,1941,1938,1937,1944,1937,1942,1938,1935,1940,1936,1941,1942,1941,1945,1941,1938,1937,1933,1941,1944,1947,1943,1946,1940,1942,1942,1935,1939,1944,1945,1948,1943,1936,1940,1939,1942,1940,1946,1945,1944,1944,1940,1940,1942,1941,1944,1943,1944,1944,1943,1944,1941,1941,1947,1945,1951,1944,1942,1942,1943,1941,1942,1943,1944,1942,1942,1940,1939,1944,1946,1946,1942,1944,1942,1942,1944,1940,1942,1948,1944,1948,1943,1940,1944,1940,1942,1944,1946,1947,1948,1944,1943,1942,1943,1947,1948,1947,1949,1947,1942,1944,1941,1939,1947,1944,1948,1945,1942,1944,1944,1942,1944,1947,1949,1947,1948,1944,1941,1947,1948,1946,1944,1946,1947,1944,1944,1942,1944,1949,1949,1952,1946,1942,1948,1945,1947,1945,1950,1951,1947,1944,1945,1948,1960,1974,1983,1998,2012,2022,2025,2035,2039,2054,2082,2100,2100,2100,2112,2118,2114,2118,2120,2126,2129,2124,2116,2113,2112,2110,2104,2100,2088,2081,2064,2042,2036,2026,2019,2012,1999,1989,1970,1956,1942,1935,1934,1930,1936,1940,1936,1934,1928,1930,1925,1930,1931,1936,1938,1930,1927,1929,1925,1920,1922,1924,1929,1930,1934,1925,1923,1927,1928,1927,1930,1934,1938,1932,1934,1933,1932,1934,1933,1927,1931,1915,1893,1865,1856,1878,1943,2025,2118,2199,2282,2361,2453,2526,2612,2700,2782,2860,2957,3043,3118,3193,3286,3350,3341,3243,3154,3068,2960,2866,2776,2687,2585,2485,2392,2293,2204,2110,1999,1902,1819,1751,1741,1752,1783,1818,1840,1868,1890,1908,1912,1909,1920,1910,1912,1915,1914,1925,1919,1914,1914,1916,1918,1916,1914,1926,1924,1914,1914,1911,1910,1915,1921,1922,1925,1919,1917,1917,1915,1924,1918,1914,1927,1919,1919,1926,1930,1938,1954,1974,1986,2002,2005,2010,2024,2040,2058,2070,2072,2084,2098,2107,2125,2135,2151,2172,2199,2216,2220,2234,2255,2259,2270,2283,2293,2301,2305,2305,2298,2304,2311,2324,2326,2325,2336,2329,2328,2336,2335,2337,2345,2340,2333,2331,2324,2318,2313,2318,2315,2308,2308,2305,2300,2288,2285,2283,2270,2253,2242,2230,2208,2190,2177,2157,2140,2132,2119,2108,2094,2072,2064,2054,2046,2026,2019,2013,1999,1979,1964,1952,1942,1921,1906,1904,1918,1921,1916,1918,1914,1919,1925,1927,1928,1920,1922,1923,1921,1925,1922,1922,1928,1929,1926,1920,1922,1923,1927,1929,1926,1928,1928,1922,1923,1918,1924,1930,1930,1934,1928,1923,1923,1926,1925,1926,1928,1929,1930,1930,1928,1928,1928,1929,1931,1929,1930,1928,1926,1926,1923,1926,1930,1930,1932,1931,1925,1928,1928,1930,1926,1930,1934,1934,1930,1925,1929,1926,1931,1932,1931,1933,1932,1930,1931,1927,1930,1932,1934,1936,1934,1926,1928,1930,1933,1937,1928,1931,1936,1930,1930,1934,1933,1933,1932,1932,1934,1934,1934,1935,1928,1933,1935,1937,1938,1936,1932,1931,1933,1934,1935,1940,1937,1937,1933,1929,1931,1935,1934,1940,1943,1940,1940,1933,1934,1933,1930,1939,1939,1941,1937,1936,1936,1938,1938,1936,1939,1940,1940,1937,1936,1935,1937,1940,1942,1936,1940,1940,1937,1940,1933,1939,1944,1942,1942,1939,1936,1941,1938,1937,1940,1940,1942,1944,1938,1939,1936,1938,1944,1946,1940,1948,1954,1964,1977,1982,2000,2013,2020,2032,2035,2042,2062,2088,2094,2092,2100,2115,2118,2117,2113,2122,2122,2120,2121,2116,2115,2113,2108,2098,2082,2080,2078,2055,2039,2038,2022,2021,2009,1991,1981,1971,1962,1949,1942,1933,1933,1934,1934,1943,1935,1938,1937,1928,1933,1935,1938,1939,1937,1936,1938,1930,1927,1922,1930,1934,1946,1941,1934,1936,1934,1934,1938,1939,1948,1948,1949,1947,1940,1936,1940,1938,1941,1936,1920,1892,1870,1871,1918,2000,2084,2168,2251,2338,2423,2504,2583,2662,2750,2832,2934,3025,3100,3168,3252,3329,3358,3304,3216,3128,3037,2931,2837,2747,2644,2547,2453,2366,2267,2174,2071,1969,1886,1804,1761,1764,1783,1816,1845,1864,1886,1910,1926,1926,1930,1930,1923,1925,1927,1930,1934,1937,1932,1934,1933,1929,1928,1926,1939,1938,1932,1937,1931,1931,1937,1938,1937,1944,1937,1937,1934,1939,1944,1934,1935,1942,1936,1946,1953,1955,1962,1983,1996,2005,2032,2023,2042,2054,2066,2080,2080,2093,2112,2127,2137,2152,2169,2179,2206,2224,2233,2246,2268,2280,2285,2294,2306,2309,2322,2328,2324,2331,2334,2338,2339,2339,2351,2353,2351,2357,2360,2353,2358,2357,2349,2348,2347,2342,2341,2336,2332,2332,2327,2327,2323,2318,2314,2309,2300,2279,2260,2253,2240,2224,2211,2192,2174,2154,2141,2130,2118,2104,2092,2084,2073,2058,2044,2030,2022,2016,1994,1979,1971,1955,1931,1914,1926,1939,1943,1943,1939,1939,1939,1942,1944,1942,1940,1944,1950,1944,1937,1942,1939,1944,1949,1944,1947,1948,1943,1942,1937,1939,1943,1946,1947,1945,1941,1943,1946,1945,1943,1948,1948,1950,1944,1939,1942,1945,1944,1950,1944,1946,1946,1944,1947,1944,1944,1946,1950,1950,1946,1949,1945,1943,1943,1944,1948,1951,1951,1945,1943,1943,1944,1946,1948,1946,1948,1951,1947,1944,1942,1944,1944,1951,1954,1950,1948,1946,1950,1949,1946,1948,1949,1955,1950,1942,1945,1947,1953,1952,1948,1948,1952,1949,1948,1944,1948,1952,1953,1954,1953,1949,1951,1950,1949,1946,1954,1953,1954,1948,1947,1947,1950,1952,1954,1951,1952,1953,1952,1951,1948,1949,1948,1951,1954,1956,1952,1952,1951,1950,1950,1955,1952,1957,1955,1950,1951,1952,1952,1955,1952,1957,1956,1952,1955,1950,1952,1956,1954,1956,1953,1950,1952,1953,1951,1954,1953,1956,1960,1956,1953,1953,1951,1952,1954,1952,1954,1959,1953,1949,1952,1956,1973,1985,1995,2010,2022,2026,2035,2042,2054,2066,2089,2111,2107,2109,2122,2125,2130,2130,2130,2140,2135,2132,2126,2125,2123,2124,2114,2111,2102,2090,2072,2056,2048,2042,2035,2023,2015,1998,1982,1969,1955,1949,1944,1941,1944,1944,1943,1943,1939,1941,1944,1948,1942,1944,1946,1940,1939,1936,1942,1936,1931,1940,1941,1943,1944,1937,1937,1944,1940,1942,1942,1942,1947,1945,1946,1947,1949,1947,1950,1936,1942,1932,1907,1885,1871,1884,1953,2030,2115,2200,2278,2366,2456,2532,2613,2704,2783,2866,2962,3047,3130,3198,3293,3365,3352,3262,3175,3086,2987,2892,2796,2710,2606,2500,2408,2309,2228,2129,2017,1920,1840,1768,1755,1764,1796,1830,1856,1879,1903,1919,1921,1927,1927,1925,1922,1926,1934,1936,1934,1928,1927,1929,1931,1925,1928,1932,1934,1928,1926,1923,1924,1932,1931,1934,1932,1928,1927,1928,1935,1942,1937,1935,1936,1931,1932,1940,1945,1954,1964,1986,1994,2007,2020,2018,2031,2050,2068,2082,2086,2091,2110,2118,2126,2152,2167,2182,2213,2225,2227,2239,2262,2270,2280,2293,2304,2307,2314,2310,2310,2316,2326,2332,2332,2340,2339,2337,2338,2344,2346,2347,2351,2350,2338,2330,2334,2325,2325,2328,2329,2325,2318,2314,2308,2296,2289,2295,2282,2261,2250,2232,2214,2201,2182,2168,2152,2139,2126,2110,2095,2084,2068,2060,2056,2038,2024,2016,2004,1989,1968,1956,1946,1934,1914,1911,1917,1924,1926,1926,1930,1931,1929,1928,1932,1926,1926,1926,1929,1932,1928,1929,1929,1928,1926,1923,1923,1929,1927,1928,1928,1926,1925,1927,1930,1926,1926,1934,1933,1930,1927,1928,1927,1928,1929,1935,1932,1933,1930,1931,1924,1927,1930,1930,1930,1931,1930,1927,1928,1925,1923,1932,1930,1934,1931,1926,1929,1926,1930,1935,1929,1933,1934,1931,1930,1930,1926,1932,1931,1935,1933,1931,1929,1932,1930,1932,1932,1932,1937,1936,1930,1931,1930,1935,1938,1935,1935,1937,1934,1930,1927,1929,1937,1940,1938,1934,1934,1929,1937,1933,1937,1933,1936,1938,1937,1929,1930,1934,1936,1936,1937,1937,1939,1934,1933,1931,1936,1933,1937,1940,1938,1934,1939,1939,1935,1937,1936,1942,1943,1940,1936,1936,1935,1933,1939,1940,1940,1939,1937,1938,1935,1938,1941,1942,1942,1940,1940,1936,1941,1937,1940,1943,1942,1942,1944,1936,1937,1938,1941,1941,1937,1939,1946,1939,1938,1939,1937,1940,1940,1939,1941,1940,1947,1960,1969,1980,2000,2012,2021,2026,2029,2042,2050,2085,2093,2093,2101,2110,2116,2111,2112,2113,2122,2122,2124,2120,2111,2108,2109,2095,2091,2084,2076,2056,2039,2031,2023,2017,2009,1993,1981,1965,1957,1943,1933,1927,1927,1930,1934,1938,1934,1930,1929,1928,1926,1933,1937,1930,1933,1930,1929,1928,1925,1918,1928,1933,1939,1936,1928,1927,1926,1924,1926,1932,1936,1944,1939,1939,1937,1932,1933,1933,1934,1934,1913,1887,1868,1861,1905,1978,2062,2156,2241,2319,2404,2487,2558,2651,2742,2820,2906,2999,3084,3155,3226,3314,3361,3312,3222,3132,3038,2952,2845,2751,2668,2557,2460,2374,2277,2181,2077,1981,1890,1802,1752,1752,1767,1802,1834,1849,1874,1902,1918,1925,1923,1920,1918,1914,1920,1925,1932,1930,1929,1926,1921,1920,1920,1923,1933,1924,1923,1925,1919,1921,1924,1926,1930,1934,1931,1928,1923,1930,1934,1925,1926,1933,1930,1938,1940,1938,1947,1966,1988,2002,2019,2021,2028,2044,2061,2069,2075,2086,2107,2122,2131,2143,2158,2170,2194,2222,2226,2243,2260,2272,2275,2286,2297,2307,2319,2322,2323,2322,2326,2336,2334,2339,2345,2352,2349,2348,2352,2356,2354,2354,2354,2348,2350,2345,2333,2334,2334,2331,2330,2328,2323,2315,2307,2305,2305,2280,2263,2260,2245,2226,2209,2190,2176,2156,2144,2134,2123,2106,2094,2082,2069,2059,2043,2034,2024,2015,1999,1977,1964,1957,1935,1920,1928,1940,1943,1944,1939,1940,1942,1943,1943,1945,1945,1947,1946,1941,1938,1942,1949,1949,1946,1947,1942,1946,1946,1942,1940,1944,1948,1949,1946,1942,1944,1945,1944,1948,1946,1946,1952,1947,1946,1944,1945,1950,1952,1948,1950,1946,1947,1948,1949,1945,1948,1952,1954,1952,1950,1946,1945,1947,1952,1951,1948,1954,1952,1948,1942,1943,1949,1956,1953,1954,1948,1949,1947,1945,1948,1949,1951,1956,1951,1948,1946,1948,1950,1953,1950,1953,1956,1953,1954,1953,1951,1954,1957,1955,1956,1952,1952,1954,1953,1953,1955,1956,1956,1952,1951,1953,1950,1955,1958,1955,1954,1955,1955,1952,1950,1948,1956,1954,1959,1954,1951,1954,1953,1947,1947,1954,1957,1955,1956,1948,1951,1952,1953,1955,1954,1956,1958,1951,1953,1952,1952,1954,1957,1956,1955,1953,1953,1954,1951,1950,1952,1959,1962,1956,1952,1950,1955,1960,1959,1958,1958,1958,1953,1956,1954,1951,1957,1959,1958,1961,1955,1958,1955,1953,1954,1958,1964,1977,1987,1992,2008,2021,2033,2041,2049,2062,2074,2088,2104,2109,2112,2125,2135,2130,2135,2133,2138,2140,2133,2130,2131,2132,2132,2124,2107,2099,2093,2080,2062,2054,2048,2040,2030,2017,1998,1986,1975,1967,1954,1950,1942,1946,1948,1944,1946,1952,1948,1952,1946,1943,1950,1949,1945,1942,1947,1954,1943,1939,1934,1938,1942,1951,1944,1941,1948,1943,1941,1942,1942,1953,1962,1956,1959,1951,1948,1952,1944,1950,1941,1918,1900,1878,1883,1944,2025,2109,2202,2287,2368,2464,2536,2613,2702,2784,2865,2970,3058,3133,3202,3289,3363,3361,3271,3187,3099,3000,2903,2806,2720,2619,2508,2419,2327,2238,2144,2028,1926,1851,1780,1762,1773,1804,1839,1862,1877,1905,1920,1930,1934,1935,1936,1936,1933,1935,1941,1940,1939,1941,1940,1936,1931,1933,1939,1936,1935,1936,1938,1936,1940,1938,1940,1942,1940,1938,1938,1943,1952,1947,1934,1933,1939,1938,1950,1957,1962,1973,1990,2003,2011,2025,2031,2046,2062,2074,2086,2088,2096,2116,2128,2139,2161,2180,2186,2212,2228,2236,2256,2274,2284,2292,2300,2313,2311,2322,2322,2326,2332,2341,2345,2343,2344,2354,2350,2352,2356,2358,2360,2359,2355,2350,2342,2347,2342,2338,2341,2335,2333,2331,2321,2316,2311,2311,2312,2293,2272,2258,2246,2230,2212,2198,2184,2168,2152,2130,2122,2110,2100,2092,2077,2068,2051,2035,2028,2016,2004,1988,1977,1963,1944,1927,1919,1932,1936,1942,1943,1943,1942,1940,1936,1937,1934,1940,1942,1938,1941,1937,1940,1939,1938,1937,1940,1942,1941,1942,1939,1940,1938,1938,1942,1943,1943,1943,1940,1938,1939,1937,1939,1944,1945,1944,1938,1946,1943,1939,1940,1942,1945,1947,1944,1939,1938,1943,1942,1942,1944,1941,1945,1946,1943,1940,1937,1941,1946,1944,1949,1944,1944,1943,1941,1942,1944,1943,1948,1946,1940,1937,1937,1938,1942,1941,1943,1943,1943,1938,1939,1936,1942,1944,1943,1942,1937,1938,1939,1936,1934,1940,1942,1943,1944,1937,1936,1937,1940,1944,1942,1940,1941,1940,1943,1938,1937,1945,1942,1940,1943,1941,1939,1940,1938,1937,1940,1942,1943,1945,1941,1938,1940,1938,1944,1940,1941,1943,1942,1944,1940,1938,1940,1946,1945,1943,1945,1944,1942,1941,1938,1942,1941,1947,1941,1942,1938,1941,1943,1943,1944,1943,1942,1945,1940,1938,1934,1939,1945,1944,1944,1940,1939,1942,1939,1938,1939,1944,1948,1946,1942,1937,1945,1952,1964,1973,1981,2001,2013,2018,2022,2031,2048,2059,2090,2098,2093,2098,2114,2115,2113,2117,2123,2126,2122,2116,2113,2113,2112,2110,2100,2092,2089,2076,2053,2034,2031,2028,2020,2010,1995,1979,1969,1952,1940,1933,1930,1933,1937,1932,1932,1929,1929,1929,1932,1930,1929,1938,1935,1925,1922,1923,1927,1927,1919,1924,1927,1933,1932,1923,1923,1929,1931,1931,1930,1931,1939,1937,1940,1939,1932,1935,1935,1931,1927,1913,1884,1870,1866,1899,1968,2044,2134,2228,2306,2391,2476,2552,2630,2727,2802,2889,2984,3065,3143,3220,3306,3365,3320,3226,3139,3050,2949,2859,2764,2679,2569,2466,2376,2281,2194,2101,1999,1903,1814,1750,1740,1762,1794,1828,1853,1872,1903,1915,1918,1917,1920,1917,1918,1919,1923,1927,1927,1921,1921,1918,1919,1925,1924,1929,1927,1918,1923,1919,1925,1925,1926,1932,1928,1922,1920,1918,1934,1938,1927,1925,1931,1921,1931,1933,1938,1950,1974,1992,1999,2008,2011,2021,2036,2054,2067,2075,2087,2098,2108,2117,2134,2153,2166,2191,2214,2225,2234,2254,2261,2269,2284,2296,2307,2313,2314,2310,2316,2316,2324,2333,2336,2343,2341,2332,2336,2340,2346,2345,2349,2343,2338,2337,2336,2323,2320,2330,2332,2331,2319,2311,2306,2298,2295,2295,2279,2255,2251,2240,2217,2198,2179,2170,2156,2141,2127,2113,2102,2086,2073,2061,2051,2039,2028,2018,2005,1984,1970,1958,1948,1927,1910,1922,1931,1929,1930,1926,1932,1936,1937,1936,1932,1931,1934,1931,1929,1932,1937,1935,1934,1931,1931,1932,1934,1936,1930,1934,1938,1933,1933,1934,1928,1934,1935,1935,1934,1936,1937,1932,1932,1930,1931,1938,1939,1940,1939,1932,1937,1937,1937,1940,1938,1939,1940,1940,1936,1934,1941,1942,1939,1940,1939,1940,1940,1938,1939,1941,1944,1945,1946,1941,1938,1941,1942,1942,1944,1943,1950,1946,1944,1944,1940,1947,1947,1950,1949,1945,1948,1948,1946,1944,1948,1952,1951,1953,1949,1945,1950,1949,1951,1950,1946,1954,1949,1946,1946,1942,1950,1952,1954,1954,1948,1949,1950,1948,1947,1949,1953,1954,1954,1950,1949,1948,1950,1950,1949,1951,1954,1953,1953,1948,1950,1952,1954,1953,1954,1952,1956,1950,1947,1949,1951,1954,1956,1955,1953,1949,1953,1953,1956,1958,1955,1957,1955,1954,1956,1952,1956,1960,1957,1954,1954,1952,1951,1952,1952,1956,1958,1961,1961,1958,1954,1958,1955,1956,1957,1958,1962,1964,1971,1980,1986,2007,2023,2034,2039,2046,2058,2067,2082,2100,2108,2116,2130,2136,2129,2127,2132,2139,2136,2134,2139,2141,2132,2126,2114,2104,2104,2104,2088,2069,2057,2049,2042,2030,2018,2006,1995,1980,1970,1958,1948,1943,1946,1950,1951,1954,1955,1953,1949,1945,1943,1951,1958,1948,1944,1946,1948,1947,1939,1933,1945,1955,1962,1953,1940,1945,1948,1946,1949,1949,1955,1966,1958,1955,1948,1944,1952,1951,1959,1943,1921,1901,1880,1882,1945,2022,2109,2203,2288,2363,2450,2532,2609,2699,2781,2865,2960,3051,3126,3192,3277,3360,3366,3286,3201,3114,3007,2913,2817,2725,2622,2532,2437,2344,2244,2151,2054,1949,1868,1792,1764,1778,1802,1831,1856,1878,1907,1927,1938,1938,1938,1936,1934,1936,1934,1944,1947,1944,1944,1939,1936,1937,1938,1940,1944,1943,1945,1941,1937,1940,1936,1945,1948,1947,1940,1940,1942,1948,1946,1938,1940,1956,1944,1956,1952,1956,1971,1990,2004,2016,2030,2034,2048,2059,2073,2086,2096,2106,2121,2128,2144,2162,2175,2188,2215,2235,2246,2260,2280,2281,2287,2305,2309,2320,2328,2328,2336,2334,2338,2341,2342,2351,2362,2356,2357,2358,2362,2366,2362,2362,2354,2357,2354,2350,2341,2340,2342,2337,2335,2331,2322,2319,2315,2312,2294,2274,2267,2255,2243,2221,2202,2189,2171,2155,2142,2132,2124,2112,2099,2079,2073,2061,2043,2034,2023,2011,2000,1984,1966,1952,1932,1925,1942,1951,1947,1944,1946,1944,1943,1947,1948,1951,1952,1952,1944,1941,1947,1943,1948,1947,1945,1956,1951,1948,1947,1943,1947,1951,1953,1953,1950,1944,1946,1943,1943,1943,1951,1949,1951,1945,1948,1950,1948,1951,1948,1948,1954,1952,1952,1947,1943,1946,1951,1952,1951,1952,1950,1948,1948,1947,1947,1952,1953,1954,1950,1950,1954,1948,1952,1952,1951,1955,1956,1951,1948,1945,1951,1955,1958,1952,1953,1951,1953,1949,1948,1953,1955,1954,1954,1949,1946,1952,1950,1952,1954,1952,1954,1954,1952,1949,1948,1948,1954,1954,1953,1949,1951,1951,1950,1952,1951,1952,1955,1955,1952,1951,1952,1951,1951,1951,1948,1958,1954,1952,1950,1948,1950,1957,1958,1954,1953,1954,1954,1955,1950,1951,1956,1957,1955,1951,1952,1958,1951,1951,1952,1952,1960,1957,1954,1952,1950,1956,1958,1955,1954,1953,1951,1952,1951,1951,1953,1957,1955,1958,1954,1953,1956,1951,1955,1954,1953,1960,1956,1954,1954,1954,1954,1956,1970,1977,1987,1993,2011,2021,2026,2034,2049,2059,2069,2085,2102,2102,2107,2118,2126,2125,2128,2130,2134,2129,2129,2129,2127,2126,2124,2110,2102,2094,2086,2063,2044,2044,2038,2030,2016,2001,1992,1975,1963,1952,1945,1942,1940,1941,1935,1941,1942,1941,1939,1938,1937,1940,1942,1937,1932,1933,1941,1937,1938,1926,1924,1935,1939,1939,1933,1934,1939,1940,1935,1930,1936,1944,1950,1950,1945,1938,1939,1936,1934,1933,1919,1904,1880,1873,1894,1958,2041,2122,2220,2301,2384,2477,2551,2623,2714,2795,2884,2986,3073,3141,3212,3301,3360,3333,3234,3155,3071,2975,2876,2776,2685,2589,2482,2392,2295,2204,2116,2009,1906,1814,1753,1748,1764,1798,1832,1853,1874,1898,1915,1918,1920,1925,1922,1923,1921,1918,1933,1928,1928,1928,1925,1928,1923,1920,1926,1924,1926,1926,1924,1925,1925,1926,1927,1929,1920,1923,1926,1928,1936,1926,1921,1932,1922,1932,1938,1942,1954,1972,1986,1993,2006,2013,2023,2039,2051,2068,2074,2081,2096,2105,2122,2139,2155,2169,2184,2202,2224,2230,2248,2264,2271,2286,2299,2300,2304,2310,2312,2316,2316,2323,2328,2334,2338,2343,2335,2339,2351,2352,2352,2344,2343,2341,2337,2336,2330,2322,2334,2330,2322,2313,2309,2307,2300,2300,2298,2279,2260,2249,2237,2215,2200,2186,2171,2157,2137,2120,2112,2099,2087,2075,2056,2056,2036,2022,2009,1999,1990,1971,1962,1946,1925,1916,1916,1925,1928,1931,1936,1935,1938,1931,1928,1933,1930,1934,1933,1935,1936,1934,1932,1929,1929,1932,1935,1934,1932,1931,1934,1933,1932,1928,1934,1937,1935,1940,1932,1930,1932,1932,1934,1934,1934,1939,1935,1935,1932,1930,1935,1938,1939,1936,1936,1937,1936,1937,1932,1932,1938,1938,1940,1937,1931,1937,1936,1935,1936,1937,1939,1937,1935,1931,1934,1940,1940,1940,1939,1938,1937,1938,1937,1933,1934,1940,1939,1941,1935,1937,1938,1937,1938,1942,1940,1943,1940,1940,1936,1938,1940,1939,1942,1941,1942,1940,1941,1944,1936,1937,1942,1945,1944,1940,1938,1939,1939,1942,1942,1943,1946,1944,1940,1938,1936,1941,1945,1948,1945,1944,1944,1942,1944,1940,1943,1948,1946,1949,1944,1944,1948,1944,1948,1947,1948,1951,1949,1947,1942,1944,1944,1950,1949,1946,1945,1947,1944,1945,1942,1948,1948,1944,1950,1944,1944,1944,1942,1946,1947,1951,1951,1952,1946,1944,1942,1946,1949,1950,1947,1947,1946,1950,1954,1959,1971,1984,1998,2017,2019,2022,2038,2046,2060,2074,2096,2108,2106,2114,2118,2119,2121,2128,2132,2131,2125,2128,2119,2124,2114,2116,2106,2100,2095,2080,2051,2042,2040,2035,2023,2016,2004,1990,1969,1960,1948,1945,1941,1945,1944,1943,1948,1942,1942,1937,1939,1943,1947,1954,1946,1935,1940,1945,1943,1933,1933,1946,1946,1952,1943,1934,1942,1948,1943,1940,1943,1955,1956,1950,1948,1943,1948,1953,1950,1948,1937,1916,1895,1882,1884,1944,2021,2097,2189,2274,2355,2447,2528,2610,2688,2777,2861,2952,3042,3114,3186,3283,3360,3368,3296,3202,3112,3012,2922,2827,2727,2636,2541,2443,2340,2250,2163,2060,1956,1873,1797,1767,1773,1798,1827,1854,1883,1907,1928,1931,1930,1936,1936,1934,1934,1936,1943,1948,1942,1938,1938,1940,1937,1940,1942,1950,1944,1936,1939,1935,1940,1947,1948,1951,1946,1938,1942,1944,1948,1954,1945,1945,1951,1945,1948,1951,1964,1977,1998,2006,2017,2036,2032,2044,2056,2074,2094,2097,2108,2117,2125,2141,2158,2176,2193,2217,2238,2247,2257,2274,2282,2293,2312,2317,2324,2332,2332,2332,2333,2333,2344,2350,2358,2366,2360,2355,2360,2363,2365,2366,2365,2361,2360,2357,2345,2338,2345,2346,2348,2342,2331,2331,2320,2314,2310,2298,2284,2272,2263,